Date,Time,HomeTeam,AwayTeam,FTR,FTHG,FTAG,Season,Home_Elo,Away_Elo,Elo_Difference,AvgHomeOdds,AvgDrawOdds,AvgAwayOdds,NumBookies,B365HomeOdds,B365DrawOdds,B365AwayOdds,Home_GoalsFor_Rolling5,Home_GoalsAgainst_Rolling5,Home_GoalDifference_Rolling5,Home_Shots_Rolling5,Home_ShotsAgainst_Rolling5,Home_ShotDifference_Rolling5,Home_ShotsOnTarget_Rolling5,Home_ShotsOnTargetAgainst_Rolling5,Home_ShotOnTargetDifference_Rolling5,Home_ShotAccuracy_Rolling5,Home_Corners_Rolling5,Home_CornerDifference_Rolling5,Home_Fouls_Rolling5,Home_FoulDifference_Rolling5,Home_YellowCards_Rolling5,Home_YellowCardDifference_Rolling5,Home_Points_Rolling5,Home_Win_Rolling5,Home_xG_Rolling5,Home_xGA_Rolling5,Home_deep_Rolling5,Home_deep_allowed_Rolling5,Home_OpponentElo_Rolling5,Home_GoalsFor_RollingTeam7,Home_GoalsAgainst_RollingTeam7,Home_GoalDifference_RollingTeam7,Home_Shots_RollingTeam7,Home_ShotsAgainst_RollingTeam7,Home_ShotDifference_RollingTeam7,Home_ShotsOnTarget_RollingTeam7,Home_ShotsOnTargetAgainst_RollingTeam7,Home_ShotOnTargetDifference_RollingTeam7,Home_ShotAccuracy_RollingTeam7,Home_Corners_RollingTeam7,Home_CornerDifference_RollingTeam7,Home_Fouls_RollingTeam7,Home_FoulDifference_RollingTeam7,Home_YellowCards_RollingTeam7,Home_YellowCardDifference_RollingTeam7,Home_Points_RollingTeam7,Home_Win_RollingTeam7,Home_xG_RollingTeam7,Home_xGA_RollingTeam7,Home_deep_RollingTeam7,Home_deep_allowed_RollingTeam7,Away_GoalsFor_Rolling5,Away_GoalsAgainst_Rolling5,Away_GoalDifference_Rolling5,Away_Shots_Rolling5,Away_ShotsAgainst_Rolling5,Away_ShotDifference_Rolling5,Away_ShotsOnTarget_Rolling5,Away_ShotsOnTargetAgainst_Rolling5,Away_ShotOnTargetDifference_Rolling5,Away_ShotAccuracy_Rolling5,Away_Corners_Rolling5,Away_CornerDifference_Rolling5,Away_Fouls_Rolling5,Away_FoulDifference_Rolling5,Away_YellowCards_Rolling5,Away_YellowCardDifference_Rolling5,Away_Points_Rolling5,Away_Win_Rolling5,Away_xG_Rolling5,Away_xGA_Rolling5,Away_deep_Rolling5,Away_deep_allowed_Rolling5,Away_OpponentElo_Rolling5,Away_GoalsFor_RollingTeam7,Away_GoalsAgainst_RollingTeam7,Away_GoalDifference_RollingTeam7,Away_Shots_RollingTeam7,Away_ShotsAgainst_RollingTeam7,Away_ShotDifference_RollingTeam7,Away_ShotsOnTarget_RollingTeam7,Away_ShotsOnTargetAgainst_RollingTeam7,Away_ShotOnTargetDifference_RollingTeam7,Away_ShotAccuracy_RollingTeam7,Away_Corners_RollingTeam7,Away_CornerDifference_RollingTeam7,Away_Fouls_RollingTeam7,Away_FoulDifference_RollingTeam7,Away_YellowCards_RollingTeam7,Away_YellowCardDifference_RollingTeam7,Away_Points_RollingTeam7,Away_Win_RollingTeam7,Away_xG_RollingTeam7,Away_xGA_RollingTeam7,Away_deep_RollingTeam7,Away_deep_allowed_RollingTeam7,Home_PPG,Away_PPG,PPG_Difference
2023-08-25,20:00,Chelsea,Luton,H,3.0,0.0,23-24,1781.06811523,1602.49462891,178.57348632000003,1.275,5.721666666666667,10.196666666666667,6,1.29,5.5,11.0,0.9456462482960516,1.1951457563844097,-0.249499508088358,14.719863366521023,11.463482661117167,3.256380705403861,4.481775069144809,3.3142864489866004,1.1674886201582082,0.3090776139755022,5.8165536216752685,1.7250851868127897,9.483056683613343,3.248641460710101,1.9144778966717984,0.1533966886257848,0.9959701321013762,0.4222578498445585,1.598098878558791,1.23975722252116,10.523271600315663,5.1612257560881565,1773.9462603541142,0.992965682837574,1.7683636115442802,-0.775397928706706,14.102722036181264,12.77982698214102,1.3228950540402422,4.490031571334352,4.394841714261158,0.0951898570731947,0.3348752488252452,5.627210196433934,1.3309535705281923,8.98632725337861,3.162589537191379,2.134653077842204,-0.5807862307771622,0.6910150797446825,0.2912888465488579,1.5122741970767597,1.7402600588024644,10.473639653267744,7.28414601047948,1.0,4.0,-3.0,9.0,27.0,-18.0,3.0,12.0,-9.0,0.3333333333333333,7.0,1.0,12.0,-1.0,2.0,0.0,0.0,0.0,1.88594,4.36748,5.0,17.0,,1.0,4.0,-3.0,9.0,27.0,-18.0,3.0,12.0,-9.0,0.3333333333333333,7.0,1.0,12.0,-1.0,2.0,0.0,0.0,0.0,1.88594,4.36748,5.0,17.0,1.1578947368421053,1.0,0.1578947368421053
2023-08-26,12:30,Bournemouth,Tottenham,A,0.0,2.0,23-24,1660.30993652,1829.25024414,-168.94030761999988,3.5866666666666664,3.806666666666666,1.92,6,3.8,3.75,1.91,1.0844661189799152,1.6361944254108836,-0.5517283064309682,11.629333598011767,15.59614256421581,-3.96680896620404,4.312432773864173,5.151774473917184,-0.8393417000530128,0.3780848800524786,5.245341618722619,-0.5671313941635652,9.679531287292592,0.6803096054027999,1.3332623969959678,0.5857278266478586,1.0118770967593036,0.3776527366140775,1.4074315325968112,1.7197333487212456,7.303625315288717,9.72489849530437,1790.421474061744,0.9141019261366096,1.720089494632968,-0.8059875684963588,10.983897838315126,17.37413642901098,-6.390238590695857,3.933752743635906,5.8678297393586805,-1.9340769957227744,0.3649272454227709,4.267980534938751,-3.097941383312397,10.4161279717021,-0.4410171399351854,1.920262827572066,-0.5593193548327274,0.8454350240845585,0.304976986341114,1.1853882947018288,1.8276428453099385,6.6808337244755895,9.414712523031609,1.9614349021898705,2.2050313671708324,-0.2435964649809614,12.267413631009846,14.504187241472565,-2.236773610462718,4.719767165034038,5.037896183349564,-0.318129018315526,0.3984027301834251,4.302627239658078,-2.0638579900209866,10.532515092820434,-0.3332026800427711,2.1216330258385985,-0.2830633697672302,1.0810784587451403,0.4129284859557531,1.421820202176839,1.7648192401039284,5.877829220581276,8.554355727199878,1770.225563595634,1.9289308478420129,1.754333769798983,0.1745970780430301,14.11331201287824,14.10775001127326,0.0055620016049805,5.414888369357732,4.799030139388314,0.6158582299694166,0.3972540657693644,4.963029876552599,-0.8855631780354081,10.813922867221631,-0.8436313972280743,1.9613904599257848,0.1897075040738116,1.4865403312819387,0.5325809858274226,1.6547578366801692,1.6713510212366989,6.0217227219385325,8.321559135454883,1.0263157894736843,1.5789473684210529,-0.5526315789473684
2023-08-26,15:00,Arsenal,Fulham,D,2.0,2.0,23-24,1927.04455566,1732.64587402,194.39868163999995,1.205,6.511666666666667,12.625,6,1.2,7.0,13.0,2.724428529795224,1.3254524357168596,1.3989760940783655,17.28324442159466,7.48153199577758,9.801712425817083,6.321531447525403,3.49431882031104,2.827212627214362,0.37758839771143,7.018521721088326,4.111784649081238,9.871281816687352,2.2106479066877167,0.8148610653089822,1.190574581581582,2.2796991869853627,0.7824184858613189,2.1319695466564283,1.131333475733597,13.152246871343698,4.373798930473582,1756.2376067345158,2.055803360835991,1.14564837971577,0.9101549811202208,14.14530213390676,9.685262181204012,4.460039952702747,5.186232567084406,3.4361228672484447,1.7501096998359604,0.3734006881917036,6.390201945293999,3.181227875752917,10.3994587496992,2.1808238899230665,1.134648056288564,0.9160752662757986,2.0527716256642474,0.7054239371693386,1.7807768646597968,1.287995246066766,10.481862521762675,6.197564857849156,1.142722727713923,1.0275194098936369,0.1152033178202865,9.566397014423876,14.884657362150731,-5.318260347726855,3.202129137248859,5.424137075750467,-2.222007938501608,0.3058314491924165,4.383691126268869,-1.475991634851782,10.98923895399314,0.6890713342188229,2.178559374597798,-1.0201046702035734,1.3677037886273302,0.4679054580802457,1.198536015067433,1.922814596682697,5.4484822578551695,7.649087057896983,1789.7532574508564,1.2770508936558924,1.517416415374213,-0.2403655217183201,10.309515879504564,14.585305348517942,-4.275789469013376,3.229141199011725,6.111798029462285,-2.882656830450561,0.2957847343174083,4.896551130944484,-0.7290009904783087,10.94370547301599,1.4199271008305052,1.660629410755506,-0.231813733310007,1.2559621123606612,0.4385103985564698,1.1859447301926294,2.1383817034781005,6.8606727663614375,8.475547550774074,2.210526315789474,1.368421052631579,0.8421052631578949
2023-08-26,15:00,Brentford,Crystal Palace,D,1.0,1.0,23-24,1835.59460449,1758.73913574,76.85546875,2.103333333333333,3.33,3.52,6,2.15,3.4,3.5,1.6748944574086118,0.9793463412557464,0.6955481161528654,12.584994146128317,12.331112574334268,0.2538815717940506,5.602491549861807,4.097155735958489,1.505335813903319,0.4646925502419116,4.854428126342334,0.3854339262104277,9.477202928320184,0.9701160193821452,1.5502580083617867,0.1113561409701998,1.913225686941848,0.7029945078401064,1.9300228573073204,1.122062510833856,7.781031422559843,6.215295448089755,1805.833621254509,1.7320692598499805,0.8636655109213183,0.8684037489286621,11.905078870496991,13.985221464661048,-2.080142594164057,5.113283436902525,4.614088540931585,0.499194895970938,0.4180262819425286,4.031426044179061,-1.4327832507237337,10.251503699283548,0.9253069677180672,1.681654251451122,0.0717818632302086,1.9502522980564945,0.6914965331620803,1.875571793554508,1.1857696108433882,7.655695378889703,7.114043076629255,1.1538338874522882,1.233027822887938,-0.0791939354356502,12.116560915401962,10.607569124623694,1.508991790778268,4.290541150847591,3.638904680622877,0.6516364702247129,0.3439789198335125,4.882391282792353,-0.2383973504700142,12.28650912409774,0.4323012986999471,1.94288159857528,0.5870750256286306,1.1946252382871716,0.4321345809224059,1.2864225657626829,1.1510182493169712,5.958276522977799,6.874845536482675,1763.8217556479865,1.1483363278123362,1.059278216055883,0.0890581117564531,14.224710139117086,9.823186729210336,4.40152340990675,4.170234902861251,3.285195690788279,0.8850392120729732,0.2816269961931804,5.201776675494172,0.148394684950919,11.367861666789034,1.724698138919074,1.4302353384485174,0.8834707823138996,1.3589006142672586,0.5003006781810454,1.2993972559334168,1.157008183920098,7.972945679860184,5.290441336102164,1.5526315789473684,1.1842105263157894,0.368421052631579
2023-08-26,15:00,Everton,Wolves,A,0.0,1.0,23-24,1691.48242188,1704.55297852,-13.07055663999995,2.2816666666666663,3.2533333333333334,3.1533333333333338,6,2.3,3.3,3.2,0.7363646581165325,1.5563262683178531,-0.8199616102013206,13.20652792257012,11.690549917182151,1.5159780053879668,5.5069138110115805,4.085728814117848,1.4211849968937305,0.4138449474626882,6.161887763196505,0.6487758138057445,10.320364466937397,-0.9248025886720666,1.4857806494957042,0.3940994961489017,1.027711480468049,0.3582520780726118,1.4819521260462785,1.453758649590965,5.062342661242182,7.047800199092788,1802.360609964156,0.9057264947394428,1.833844998656842,-0.9281185039173993,13.25632283337403,13.296916067751123,-0.0405932343770982,4.864620707996109,4.765748105671578,0.098872602324531,0.3684273661934124,5.916854598793473,-0.0504093871736085,11.35785564500849,-1.7222796342820708,1.855467375684417,0.3647125318842225,0.9050277461948062,0.3461573605651275,1.6258673594747528,1.970857996365981,5.26862362723528,8.50330134112541,0.4870012781725374,2.314920455599712,-1.8279191774271744,10.84013498492534,16.665251341067908,-5.825116356142569,2.4806689274009,6.180616426797646,-3.6999474993967465,0.2128119366910396,4.87872391457655,-0.9533860229551352,11.863811237460189,-0.3009383798144637,2.0713117309440343,-0.4191438253183386,0.4096950351631763,0.1662174380770319,0.7697636073228977,2.253195418544568,5.277622192854419,10.090181264258955,1802.4047097,0.7453962203651197,2.1336258320961243,-1.388229611731005,11.937726943606878,16.434106217163688,-4.496379273556813,3.5034022225847186,5.641161629048969,-2.1377594064642484,0.2749956377373636,5.024203563181313,-1.040937299099397,13.089842963093725,-1.9049508062263016,2.5545203271617805,-0.0646539925478722,0.8418540812279186,0.3038537819908784,1.1645796462481182,2.258279339655602,5.2914305156087815,10.384010565586935,0.9473684210526316,1.0789473684210529,-0.1315789473684211
2023-08-26,15:00,Man United,Nott'm Forest,H,3.0,2.0,23-24,1865.80163574,1677.89990234,187.9017334,1.3,5.663333333333334,8.768333333333333,6,1.3,6.0,8.0,1.8697325785762733,0.445328976324837,1.424403602251437,18.541647959662946,12.344382019231844,6.197265940431097,6.410165834216612,3.0116931546802066,3.398472679536407,0.3504015076800766,6.307029755637045,1.0570027507466573,11.58387112171332,-2.7604586661978243,1.6274480201262729,-0.0938857818761714,2.7167152395968226,0.9254306609322008,2.5497120862296305,1.1565106157234442,13.174742105602409,6.908648679868538,1761.3738433365836,1.3271056777508288,0.8805263725010612,0.4465793052497675,18.623306847404457,14.186662746047492,4.436644101356964,6.072933805973006,4.104289852780272,1.9686439531927336,0.3288566563669196,6.194386154253043,0.9526340807110708,10.883978610070974,-2.416294978674206,1.8543822519880444,-0.3363613590385877,1.979927528235634,0.6726249452285127,2.3446208198055123,1.6034655332121488,12.981329040002404,7.82985771560636,0.9137639373227509,2.11106568642908,-1.1973017491063287,8.598238155354831,15.439020508625209,-6.840782353270377,2.7533161178110226,5.721623390950682,-2.968307273139659,0.3477149318915069,4.097173601491188,-2.0498259938887435,12.302022900566117,-2.1265559389809243,1.8502607225438616,-0.4137477547712274,0.3803216880145958,0.1755107397650323,0.8922370516971156,1.632452500777313,3.353471948476225,10.048232620415796,1782.9257947834603,1.4667998200951973,1.6042980481040197,-0.1374982280088228,9.379127177588575,13.975751994984211,-4.596624817395635,3.134843709388093,4.953329066913566,-1.8184853575254736,0.3549256501388463,3.718296125732234,-2.736079131576442,11.434721270570474,-1.2375391262550186,2.0643123146073017,-0.3797680010734723,1.3375554354293206,0.4871140844112632,1.151221028885805,1.4765881600383663,4.36247904268624,9.653388270604976,1.973684210526316,1.0,0.9736842105263156
2023-08-26,17:30,Brighton,West Ham,A,1.0,3.0,23-24,1843.78979492,1787.84973145,55.94006347000004,1.5033333333333332,4.581666666666666,5.601666666666667,6,1.53,4.75,5.25,2.293665949003829,1.2488257285149775,1.0448402204888516,21.28921800586437,9.531466139325737,11.757751866538635,7.73198467956077,3.293412857512064,4.438571822048706,0.3650031677223884,7.093700851989605,3.6794269626530816,11.558304270328543,-0.0120938231971546,1.7575559581146765,0.9706746805418566,1.966865965807508,0.6917306168169317,2.6764203973846747,1.387598620373912,12.053806993017291,5.539866396850158,1793.1558940528869,2.378834440687508,1.4637146474258813,0.915119793261626,18.19425387994648,11.932288297938364,6.261965582008113,6.990865257191039,3.952044717691672,3.038820539499368,0.3921031050641078,5.119533000877696,1.068056488435107,12.345320463767846,0.1951147317160087,2.6545327868133715,-0.0082443651396415,1.8399453054444528,0.6363570551853214,2.4903665663919305,1.8800387060532104,10.611027250683067,6.934217149707862,1.0222937514204204,1.7894319208584848,-0.7671381694380643,10.912935428180978,15.856521075210631,-4.943585647029658,3.5676807165457807,5.591955097341384,-2.024274380795603,0.3985439830646558,4.591826336410396,-2.1101876644909607,10.474389116345078,-1.804554690047683,1.61888545595367,-0.5967083546872746,0.6638404370904719,0.2578878075099661,1.1218112288843078,2.003223477496169,4.6547338269294976,8.865124613756127,1793.7634671978858,1.5605145936772449,1.5179722485222766,0.0425423451549686,12.485183561608023,15.478799579638627,-2.9936160180306035,4.347262097549316,4.960923811819813,-0.6136617142704964,0.3913626348040102,5.046407322408262,-1.4408977259617952,9.645843354732602,-0.998230067405476,1.4271857207468517,0.0169378377862412,1.3895715572455056,0.4954517026095565,1.432862934566558,1.820501573408107,5.407338263770928,9.403763275297496,1.631578947368421,1.0526315789473684,0.5789473684210527
2023-08-27,14:00,Burnley,Aston Villa,A,1.0,3.0,23-24,1722.96984863,1825.75439453,-102.7845459,3.323333333333333,3.45,2.13,6,3.4,3.4,2.15,0.8719934560828712,1.727518418460626,-0.855524962377755,11.060945818053426,13.533944434404397,-2.4729986163509707,3.7211612835452414,5.274771159916743,-1.5536098763715018,0.3203900868820158,5.5785712687016,-0.072237973323313,10.133100437399516,-1.017645064825775,1.3421958345731488,-0.4159974595411337,0.9909137087172232,0.3524362902769543,1.177922528757937,1.6648225946011614,4.849812040664424,7.683616998714732,1788.5288311661811,0.8265487023750333,1.6167666151443012,-0.7902179127692677,10.765829563514805,15.280719259580776,-4.514889696065973,3.48931015684252,5.94731320971964,-2.45800305287712,0.3029573031422668,5.480201822061832,-1.1763874208220992,10.85385861468261,-1.181678792962476,1.3486474497626415,-0.3888002775807955,0.8917698023345038,0.33051458793571,1.1601224927892493,1.689150426259994,5.357264372796178,7.95680422986251,0.9922288975593576,1.5894203305098251,-0.5971914329504681,11.270458483176029,12.67552774924914,-1.405069266073116,3.510493000986543,6.014426197396351,-2.5039331964098084,0.3236861387487167,4.241452200144323,-2.2277758619779964,11.79648949432609,2.255020790201213,2.4901147320500336,0.0603806138289188,1.082429981343463,0.4066805514335463,1.2143932363600165,1.8614445127881185,5.5271262555308125,7.856819173732842,1801.7755958487328,1.7076501544683438,1.228909078241928,0.478741076226416,11.871513622986686,9.971827042931828,1.8996865800548608,4.388023882277348,4.549510733244017,-0.161486850966671,0.3789389404174919,5.219843173589975,-0.189032956122918,11.042153889298223,3.1393391840571034,2.78436608867345,0.2414162214240276,1.8345247124991249,0.6378228464971537,1.7610295614131048,1.4521170841276376,7.731949498550141,5.725181880752404,1.0,1.605263157894737,-0.605263157894737
2023-08-27,14:00,Sheffield United,Man City,A,1.0,2.0,23-24,1631.7701416,2083.71899414,-451.9488525400002,15.453333333333331,7.246666666666667,1.163333333333333,6,13.0,8.0,1.17,0.5807411764408157,1.2349433188525023,-0.6542021424116866,9.183050572634333,15.108086245606414,-5.925035672972079,2.4477557558365834,5.223806662796975,-2.776050906960391,0.2563742183816013,4.832397436003695,-1.5435628127874714,12.44367397476239,-4.932273092152719,2.0474686019447765,-1.1377296111820931,1.0883478891797185,0.3659450270318179,0.760867235491983,1.7359339660761586,4.439063503294159,8.281040174583412,1749.4399666907111,0.4879302608355161,1.4519063734133135,-0.9639761125777978,8.42923550199041,16.412069233740716,-7.982833731750307,2.032251192513322,5.866672294936763,-3.83442110242344,0.2427630777736324,4.806076972276168,-2.048965059339717,11.647763608141323,-4.256424559122863,2.3130855642580848,-1.4651545201728997,0.8137109336586361,0.2720168378531076,0.6645901774907551,1.7730139605982644,4.111572983626913,7.950778605528784,1.9498622560342849,0.6874053222020597,1.2624569338322245,15.031731695337834,8.68126099019038,6.350470705147452,5.549575434937564,2.4916654442670376,3.0579099906705265,0.3874258459895696,5.23790805258278,1.6422605405974948,9.177998881101702,1.852976291713494,1.062970587195165,0.5795137535951522,2.0638723295630546,0.7179952787989882,2.0180106261808683,0.9993525797918238,10.483777399356974,4.541225893802498,1760.303602585706,1.965671012690291,0.5234843781665973,1.4421866345236936,14.818038570966594,8.566400078081621,6.2516384928849735,5.261252129951821,2.696914697544304,2.564337432407516,0.3637965135441166,4.994713543730686,1.9815887121854856,9.314671322987842,2.1108651147276576,0.8098877401008935,1.3554489233501203,2.4265428299981155,0.8266836416081986,1.9236159110939064,0.8423280220722216,10.482033763346529,4.819001944678867,1.0,2.3421052631578947,-1.3421052631578947
2023-08-27,16:30,Newcastle,Liverpool,A,1.0,2.0,23-24,1884.53051758,1946.54150391,-62.01098633000015,2.1750000000000003,3.766666666666667,2.98,6,2.2,3.75,3.0,2.3040299507143405,0.8291251349694188,1.4749048157449214,18.35641990911482,8.581021235289171,9.775398673825656,6.630134769872375,3.2415936993449805,3.3885410705273937,0.3717100197673598,7.949312201220899,4.770477392898739,10.942410604423022,1.0349089812551278,1.7945925054690564,0.4943126355985712,2.1253401063576254,0.7459256826058298,2.811278303930489,0.9097002267709784,10.821106300218531,4.045906381066013,1789.4523101370323,2.0268114165139663,1.0645381100853182,0.9622733064286484,15.50814960728204,11.28311771054776,4.225031896734278,5.6709072862718335,3.8937507810530168,1.7771565052188167,0.3552380121074293,6.273902721450275,2.210879954089624,11.35334879536022,0.5099344507757079,2.091394918310469,-0.1289189776668722,1.662088467678855,0.6032979919041399,2.2804996909909896,1.1872968399028958,9.269009052458069,6.447524004900772,1.9415591460664647,1.4637733070370034,0.4777858390294616,15.577857313120914,10.496725849732623,5.0811314633882905,4.76344773458842,4.696977856519028,0.0664698780693907,0.323718362832915,5.235669632572155,1.470932539993418,11.519023370715846,-4.415394481525236,1.76307246830504,-0.5405257903247095,1.529012949182412,0.5742898233609213,1.86852115760641,1.5536785029003488,11.192944380094502,6.056890703774212,1751.8058348844645,2.252931445443392,1.2767984399427197,0.9761330055006716,17.31609958382824,9.702469805797463,7.613629778030775,5.435324300881364,4.459795236533359,0.9755290643480043,0.3191849034257018,6.5681236950957365,3.242103519079312,12.356207185891735,-3.440087916542797,1.9146212185952567,0.0809913575273145,2.056676024477336,0.7482582708650175,2.2546953095464985,1.2773034620859252,11.590400439763448,5.399608394930128,1.868421052631579,1.763157894736842,0.1052631578947369
2023-09-02,12:30,Sheffield United,Everton,D,2.0,2.0,23-24,1630.7019043,1682.2376709,-51.53576659999999,2.9683333333333337,3.1750000000000003,2.4466666666666668,6,2.9,3.25,2.5,0.6368255529816598,1.337285176839679,-0.7004596238580192,8.75725295829033,17.100181942782086,-8.342928984491754,2.387859336256223,5.728949159779689,-3.341089823523465,0.2666690618975035,4.31973650013992,-2.808553205691154,12.250553281164484,-5.476414120905154,2.1748890081320407,-1.3868460706060746,0.9427592708985062,0.316992452784076,0.76104980044293,2.018471013466532,4.2465595538250005,10.116229478568956,1800.4912059582982,0.5562070666558535,1.524986423359017,-0.9687793567031636,8.10533344729783,18.22381564145037,-10.11848219415254,2.02795098056895,6.284454465855806,-4.256503485286855,0.2548392605256886,4.2985937946969415,-3.2424510785129925,11.561394063706402,-4.888909071485067,2.404675283308584,-1.669803103706394,0.7052148067405597,0.2357474796046345,0.6776092474445571,2.0496875054860006,3.963361427751612,9.824031187574295,1.1331194887568508,1.9024269595797576,-0.7693074708229067,11.817389635846313,16.38772880102281,-4.570339165176502,3.543656524003536,5.713301033058071,-2.169644509054533,0.3103263174991735,4.261623561647158,-2.278789642958409,11.679779509918218,-1.0650124740275608,2.3529785255603213,-0.0980148689099085,0.829673109723325,0.3539159572796226,1.5053875694981855,2.367856935448814,5.492401181841169,9.698913031880634,1789.5656319597383,0.7849629621075171,1.7226656655025965,-0.9377027033950792,13.488813122257492,12.990660592050975,0.4981525302065149,5.149337946929962,4.396981691582034,0.752356255347927,0.3815259395898462,6.06127398562101,0.8896451977828727,11.176808225674025,-0.9593090163777944,2.0080717255931613,0.4494175276329928,0.7843573800354987,0.3000030458231105,1.662141044878119,1.8950475968505167,5.499473810270576,7.902861162308688,0.0,0.0,0.0
2023-09-02,15:00,Brentford,Bournemouth,D,2.0,2.0,23-24,1832.10632324,1653.27856445,178.82775878999996,1.6866666666666663,3.923333333333333,4.703333333333333,6,1.73,3.8,4.75,1.5846136266957191,0.98210918728037,0.6025044394153491,12.506739306582835,12.688130432790937,-0.181391126208094,4.98681489715073,4.217929479567244,0.7688854175834857,0.4136780152659938,5.275212204065152,0.601414906321402,9.413367351787532,1.642965083668826,1.3428795371388718,0.0964599971340608,1.7910632173284031,0.675839872627472,1.798658841386919,1.1138419903264332,7.409012028547619,6.052725017393934,1798.641330830157,1.6344588234602608,0.8818436666011056,0.7526151568591551,11.917735176917086,14.120526935203076,-2.202791758285989,4.564838893072151,4.665544035641444,-0.1007051425692947,0.3734000060393437,4.560575752981123,-0.9750731821393352,10.084634484947944,1.6019410358203368,1.4574309240375254,0.0622108302978824,1.8235504317431404,0.6659633477188074,1.7518954984244488,1.1690814572726531,7.301598302194108,6.832167196061978,0.8583718159632219,1.8467738142026784,-0.988401998239457,9.473038160585368,18.18833040045162,-8.715292239866253,3.3044777048263305,6.170013394624709,-2.8655356897983792,0.3804908690566267,3.1444445243821404,-5.533538082298811,10.888910214780944,-1.4981672591025044,2.399244322560068,-1.5432225388764842,0.9097421061477694,0.3083538006210128,0.9616888142599482,1.8940511666125377,4.965025289302367,9.760089956667326,1762.8935610010635,0.7922216693183943,1.7574108953485723,-0.9651892260301784,10.986044793206442,17.32425157180952,-6.338206778603076,3.809252377817785,5.885452440777524,-2.0762000629597384,0.3526339157300378,4.498916463613584,-2.15154919887074,11.427310908808492,-1.3155481879438309,1.7975611172291233,-0.2180767741883624,0.7327103542066169,0.2643133881622986,1.0918141220749162,1.8854437992686144,6.590055894545509,10.826084186627426,1.6666666666666667,0.3333333333333333,1.3333333333333337
2023-09-02,15:00,Burnley,Tottenham,A,2.0,5.0,23-24,1713.48669434,1836.46740723,-122.98071288999996,3.7366666666666655,3.84,1.8633333333333333,6,3.6,4.0,1.85,0.8890609953413566,1.897182630023773,-1.0081216346824164,10.786153041193431,13.862751844490074,-3.0765988032966405,3.491673111470917,5.371468338988466,-1.879795227517549,0.3073010382073838,5.368095098683884,-0.3292729112607261,10.382020380093708,-1.0152923895060866,1.429903056987391,-0.6271977991294355,0.8587918803499813,0.3054447847152452,1.1049468579595676,1.8211009159577007,5.269837103620394,7.859134732934513,1794.1929734837574,0.8496755420583623,1.801197733125061,-0.9515221910666988,10.530385621712828,15.37662335830334,-4.84623773659051,3.2907354692635176,5.954338115090355,-2.6636026458268374,0.2921926256862608,5.282841579120254,-1.286202431379153,11.006677466058262,-1.1574549539008123,1.435494456460956,-0.6036269072366895,0.7728671620232366,0.2864459762109487,1.089520160417349,1.8421850360919951,5.709629123090021,8.095896999214176,1.966576915231312,1.9110271848761788,0.0555497303551335,12.89842514688638,14.036962275934613,-1.138537129048231,4.890464876365857,4.7661766922314746,0.1242881841343826,0.3923411896882727,3.995610274364896,-2.3220102580227624,10.594846413778814,0.6445576773135886,2.238748622395527,-0.5119882538023222,1.3369346642503217,0.4912046878297062,1.5337308418885764,1.5939876080870443,7.760785324537134,8.213774963567193,1753.5010953653832,1.9384067347964111,1.520422600492452,0.4179841343039595,14.498203744494475,13.693383343103491,0.8048204013909832,5.492903253443368,4.559159454136539,0.9337437993068278,0.3913456805295275,4.567959226345586,-1.3008214209640203,10.838733151592082,0.2021861224023356,2.0998717319356803,-0.1022534964693632,1.6883349537776804,0.594903521050433,1.7356101251228135,1.512981818405139,7.885493025680062,8.012017917394232,1.0,2.333333333333333,-1.3333333333333337
2023-09-02,15:00,Chelsea,Nott'm Forest,A,0.0,1.0,23-24,1786.49438477,1675.13842773,111.3559570399998,1.37,4.788333333333334,8.103333333333333,6,1.4,4.5,8.5,1.219560081861431,1.035792988863665,0.1837670929977661,15.290548250995,11.401684972967118,3.888863278027886,4.95087172660048,3.0057149224495867,1.945156804150892,0.3240076163228928,5.841013138785666,1.7617404952384004,10.218649125811265,2.4154892659339926,1.9258808437824275,0.2662771301443468,1.2631741144925936,0.4992901365333155,1.840244361421909,1.13655505951651,11.386835386955545,5.00639565527366,1747.8586380408178,1.2605702584592309,1.5325817966717097,-0.2720115382124784,14.755692431357096,12.54251671785555,2.213175713501544,4.958027361823105,3.9421961523596702,1.0158312094634356,0.3463655665257388,5.676915503576076,1.4201597611244332,9.78815028626146,2.340910932232529,2.11669933412991,-0.3700147333402072,0.9988797357787248,0.3857836670090102,1.7658629707998583,1.5703241842954692,11.343821032832045,6.846259875748883,1.0661432027917774,2.235767086434428,-1.1696238836426505,8.654598072765069,15.798279593446152,-7.143681520681081,2.928203309248779,6.181520310950295,-3.2533170017015154,0.3612843322994301,3.9432599972280697,-2.884527745761559,12.119372646142493,-1.5476748057685414,2.1518302462450967,-0.3557064310408151,0.3269694366459871,0.1508897586300435,0.9017926270504164,1.8282267726354189,3.584450042176184,10.462312175119475,1796.2827769957455,1.5380950122243695,1.7909199634102948,-0.2528249511859257,9.328433374423703,14.513841713454044,-5.18540833903034,3.2505253732088946,5.494416996984117,-2.243891623775223,0.3668953753559851,3.622251408907752,-3.439927824452018,11.376593877377372,-0.804641721619343,2.3231367310896536,-0.3289885122033091,1.15870839946362,0.4219811502042129,1.1256998418937687,1.6840343467164165,4.447723160844965,10.100869976765612,1.3333333333333333,1.0,0.3333333333333332
2023-09-02,15:00,Man City,Fulham,H,5.0,1.0,23-24,2084.97290039,1738.86462402,346.1082763700001,1.14,8.155,16.768333333333334,6,1.17,8.0,15.0,2.519780692590625,0.6347596674374044,1.885021025153221,15.77138964966442,7.205128991004171,8.566260658660251,5.62131956696515,2.576651918582842,3.0446676483823087,0.3583376923550687,6.280506372491399,4.240235894778527,9.410165478862725,1.6363756522158155,0.928228008562012,1.480848747377118,2.846282325914389,0.9542342384354124,2.197391061685148,0.6647371715661181,11.85619478613958,4.211673141157885,1774.0362464953937,1.970248210998252,0.587019794411051,1.383228416587201,16.842300094837714,8.224213401004071,8.618086693833643,5.759751845958244,2.6039927378717302,3.155759108086514,0.3552903117382344,5.928751737899929,3.1840435505607543,8.339381813256129,3.02941643276397,0.7019027080874409,1.574722400236771,2.503003785998367,0.8497924893937722,2.18020578961472,0.8316485524625921,12.017762594900326,4.576468352055018,1.2570509919034278,1.157211426023214,0.0998395658802141,9.35749907967151,15.433487939538717,-6.075988859867209,3.175172778844349,6.167745649191496,-2.992572870347147,0.3150559097094284,4.199159225383538,-1.9459606546792945,10.190501701108518,0.7305374220234442,2.288108389686624,-1.2841475926630836,1.318666053405955,0.4721856523490824,1.1520301283824663,2.097260895263335,4.988585555382786,9.5629543902597,1810.6482154093749,1.3734441129961965,1.5817608967694523,-0.2083167837732559,10.001580412416462,15.173931333565118,-5.172350921148654,3.19858903750767,6.763558327097223,-3.5649692895895533,0.3063467703072667,4.643677633279189,-1.298467555571602,10.151211367515442,1.363936817721937,1.83921216554979,-0.6009052552972522,1.2218338288852753,0.4467090125212444,1.1411276971006834,2.2840481508136325,6.212583029479866,10.278807973887773,3.0,1.3333333333333333,1.6666666666666667
2023-09-02,17:30,Brighton,Newcastle,H,3.0,1.0,23-24,1828.58312988,1876.95678711,-48.37365723000016,2.498333333333333,3.731666666666666,2.538333333333333,6,2.5,3.8,2.55,2.1211771451470853,1.4823156458044853,0.6388614993425998,21.78398896898238,9.860604007749536,11.923384961232845,8.03438674096818,3.254291140760211,4.78009560020797,0.3696694123143472,8.414540819991528,4.9221701110751095,11.35053035478195,-0.1438146549084849,1.6565484907925514,1.107918064948406,1.7046171541649648,0.5994998622100582,2.5028043336741765,1.5962788172161686,13.51329948411471,5.734550889297604,1792.3484872343445,2.1949898485958395,1.6685526944357647,0.5264371541600743,19.101686695953617,11.941316524879916,7.160370171073701,7.392083222898901,3.825105421999449,3.566977800899455,0.3931560243888934,6.703595267427343,2.658982289977099,12.0326110685988,0.0357661008205402,2.4339284152382543,0.2595215502123117,1.5946192647185249,0.5515094478272783,2.341557690873006,2.0230602119127825,12.262890283925332,6.942988196413482,1.542641988997568,1.2474062762251172,0.2952357127724511,11.847279290804494,12.945647255268414,-1.0983679644639188,4.237742593970077,4.228945194168969,0.008797399801108,0.3408479239033571,5.162595167714168,-0.0905116583444256,11.06598493313174,0.010967641001437,1.813168913387578,-0.0745054120846028,1.4228094684410553,0.5330531095828152,1.4776698311665886,1.4228765189632624,7.5830096433764655,8.05478945905256,1759.947553971423,1.8899032276454373,1.1892663620739423,0.7006368655714953,16.50706299297777,10.978702015808055,5.528360977169708,5.981452981435589,3.907917343579281,2.073535637856308,0.3542497554206416,6.104049025256905,1.3827626268776745,11.972902289312191,-0.3580568093277199,1.9458755958690728,0.0216035526887107,1.4404766719883408,0.5228582596502546,2.192482398858858,1.1431400612491762,8.699807845463658,6.254520804247336,2.0,1.0,1.0
2023-09-03,14:00,Crystal Palace,Wolves,H,3.0,2.0,23-24,1762.41333008,1713.98352051,48.42980956999986,1.915,3.35,4.113333333333334,6,1.91,3.3,4.33,1.07962090083258,1.0286689379216518,0.0509519629109284,13.517457160273274,10.640639722325307,2.876817437947964,3.4979668550395986,3.7932427207088537,-0.295275865669255,0.2331173139145597,5.423650071275755,0.8279071898147601,10.709370244831772,2.485503369206421,1.5238530386918114,0.4834770348710743,1.4095829532641713,0.5335508874997371,1.118157962304145,1.2677684430077347,7.419030330882725,5.620653027789935,1767.463439121372,1.1285581507706914,1.0513744539150982,0.0771836968555927,14.32808212056814,10.113428498648956,4.214653621919184,4.280870249146418,2.9805029320165084,1.30036731712991,0.2885211744785342,5.30820645209495,-0.1380579397092035,11.85214677788383,0.6947383870631972,1.2395372933220483,0.7656746780053796,1.311047199031624,0.500260587756906,1.2675589551422946,1.1291418927307515,7.576552922545493,5.251715824621876,0.5554011718274622,2.0062641056997115,-1.4508629338722494,10.861450340237136,16.44321762092138,-5.581767280684244,2.4165796770411183,6.289867672239312,-3.8732879951981936,0.2086794321699401,4.228226783238649,-1.7596019751682728,12.148636672627084,-0.7941470578836485,2.3284704077278304,-0.4965913878297996,0.7550693540260063,0.2773885504800037,0.8540992053532208,2.2058253183616854,5.107272407554553,9.678156709701014,1785.5270528125686,0.7793433909831381,1.849142387816353,-1.069798996833215,11.812696684459167,16.242892054875004,-4.430195370415838,3.302948592906553,5.822340078509289,-2.519391485602735,0.2625719769481267,4.35430975475646,-1.8354789925536152,13.21119723468135,-2.184290698729745,2.7472509502070714,-0.1893667935416155,1.1296068703978208,0.3966732777255219,1.1962730267484012,2.210231427701473,5.119239780194103,9.932809156841556,1.3333333333333333,1.0,0.3333333333333332
2023-09-03,14:00,Liverpool,Aston Villa,H,3.0,0.0,23-24,1954.30114746,1835.71435547,118.58679198999994,1.63,4.39,4.533333333333334,6,1.65,4.5,4.5,2.3009558204503686,0.8987720905624863,1.402183729887882,17.33573846838888,8.552913604914945,8.782824863473929,6.029815328266265,3.5968243954824235,2.432990932783841,0.3525239643033012,7.233953798018664,4.080897093139723,11.928350287761816,-1.23793073896143,1.8009808113183197,0.5261720092164796,2.461962891352002,0.8599969164686221,2.447577750901212,1.0759493338049764,11.179068741433102,4.553719951564088,1777.74900994074,2.219207252717606,1.2398919812836906,0.9793152714339154,16.207286305984475,11.475473831691136,4.7318124742933385,5.243947727430515,4.931822538328911,0.3121251891016037,0.3358861755615341,6.892373869082972,3.34315638320207,12.042046227772838,-2.181409527670424,1.9260050561158897,-0.0631408234763274,2.182452554547024,0.7818238347496819,2.0682187349402987,1.323045667141135,10.71168038112832,5.34632727560611,1.2599317277565971,1.5108309482533202,-0.2508992204967234,11.901064057710911,12.185457352406392,-0.2843932946954838,3.842427288028331,5.479169338009057,-1.6367420499807257,0.3305279873382389,4.475925254610656,-1.6640723788890703,11.69029088852174,2.087684674503147,2.1580994139316965,0.3189965479621682,1.3381059996264806,0.4857898161297199,1.4307288819790691,1.697332519236142,5.99017625322557,7.875909957375216,1789.784723006804,1.8799634672058985,1.1983878678096709,0.6815755993962281,12.42197847325513,9.842250103874251,2.579728369380882,4.602954031307036,4.20957596881148,0.393378062495554,0.3784137483618263,5.32386408377798,0.1028381046934722,11.03653337072513,2.854093959516155,2.413117276850321,0.4758940585674915,1.989921417499242,0.6861131336308667,1.904480286558118,1.3425821395772142,7.901022898743567,6.028490963318949,2.333333333333333,2.0,0.3333333333333335
2023-09-03,16:30,Arsenal,Man United,H,3.0,1.0,23-24,1921.01159668,1868.74890137,52.2626953099998,1.745,3.888333333333333,4.296666666666667,6,1.75,3.8,4.5,2.6278380591541497,1.415392110956205,1.2124459481979453,17.512145165386094,7.550661063008461,9.961484102377636,6.945327254533068,3.4284096442684,3.516917610264667,0.4044362604731887,7.149385491612201,4.230213362539171,9.35511090778656,1.78256151912177,0.7062129232658595,1.4318313040416455,2.1090726287176245,0.7447626877458092,2.2784909404546583,1.0937979456308944,14.331947288651548,4.057292406369207,1752.6479516983943,2.0483629127245253,1.2595619290870006,0.7888009836375246,14.792595182719191,9.46056055704348,5.332034625675713,5.961401558139818,3.3779731516153184,2.583428406524499,0.4008069122222835,6.604841685921465,3.4237308256525285,9.812864249739308,1.7567140379333244,0.9833616487834222,1.1939318974390256,1.912402075575681,0.6780340788800934,1.974123949371824,1.2295714799245303,12.017614185527654,5.637889543469269,0.8508260862713777,1.5594592802096516,-0.7086331939382735,15.685715802345106,15.110492112785485,0.575223689559618,5.167894806465132,5.0258538986181245,0.1420409078470082,0.3480652961003073,5.402004576808634,-0.1287495621713058,10.133420218962955,-2.0375221715587952,2.0897973315405785,-0.7636761592910065,1.1077114336420937,0.3917692349327649,1.623508716402813,1.86197141717699,10.11240319889169,7.423064899414725,1770.7469519782744,1.5501582540507184,1.029789522834253,0.5203687312164652,18.540199267750527,13.49510771324116,5.045091554509369,6.4632092985099385,4.0903845390762354,2.372824759433702,0.3516757688513303,6.835134667019304,1.8922828699495948,11.166114795394844,-2.360788981517645,2.1404646183896388,-0.2915131778334427,2.115937191137549,0.7162749525313776,2.435742043831444,1.5177173287838623,12.983818501335415,7.452543353525512,2.333333333333333,2.0,0.3333333333333335
2023-09-16,12:30,Wolves,Liverpool,A,1.0,3.0,23-24,1708.1940918,1961.35400391,-253.15991211000005,6.276666666666666,4.805,1.4383333333333332,6,6.0,5.0,1.45,1.190120960531785,1.2789754557476234,-0.0888544952158386,11.961787345444458,14.7313553559867,-2.76956801054224,4.521565038466793,4.29456016434037,0.2270048741264222,0.3903208762104875,5.036440629267495,-0.5902105257401357,13.503345924230988,-3.061840368720754,2.713103635670697,0.2015724070423177,1.617058880262132,0.5633153465514594,1.3370958449462798,1.7188306127364668,4.897453801916118,8.433363824796897,1776.73777143726,0.9420976055188623,2.002590069440974,-1.0604924639221116,11.837670459864636,16.21050644755831,-4.372835987693676,3.395888780519094,6.512694734708656,-3.116805954189561,0.2720068244661625,4.040401787455323,-1.8574151268798191,13.049704270057028,-1.8930519388988565,2.780950823512825,-0.4307845544029453,0.9789926210113126,0.3437835073620726,1.1886512898486077,2.2261139040079576,5.503341142835226,10.075101269262808,1.949351259924408,1.4019368660976408,0.547414393826767,14.70080967135592,12.16382906979781,2.536980601558109,4.661654703308161,5.13738080899096,-0.4757261056828011,0.3398151737147374,5.737580348238094,1.8081415346669367,11.316486921283476,-3.0266752172972664,1.794662805864928,-0.6017890182825002,1.7251445559615657,0.6310511802471375,1.7335344696164443,1.562570702533998,10.367218460857709,5.915971942948287,1772.000868094657,2.3233129523552583,1.0745730504458653,1.2487399019093934,16.312981465186546,11.145410654132318,5.167570811054227,5.07808803043978,4.674246199885056,0.4038418305547232,0.3224739011729374,6.906724019871909,3.4307355321084607,12.036440064069792,-2.5572215906477007,1.6692043819671043,0.0786112863205162,2.2914588806074203,0.8109139901163909,2.156640236948259,1.2287066448556505,10.750122996977876,5.033483638858629,0.75,2.5,-1.75
2023-09-16,15:00,Aston Villa,Crystal Palace,H,3.0,1.0,23-24,1828.66149902,1768.20275879,60.4587402300001,1.885,3.535,4.008333333333334,6,1.91,3.6,4.0,2.151531646056089,0.829759997007404,1.3217716490486853,12.287388097409616,8.426266333382111,3.861121764027504,4.95220105570283,2.7506095799821058,2.2015914757207264,0.412446168441116,5.543605948148691,0.8032834325525188,10.060283601569456,3.360231264168225,2.3046877784666444,0.3672506838649017,2.4243826980151484,0.818095321094716,1.8824284078129456,1.0165031086846046,9.176965910517085,4.137894722681806,1784.6109258270458,1.6293016715784443,1.438602818768382,0.1906988528100627,11.965714676821111,10.79661675669102,1.169097920130093,4.389226827132764,4.181632506303282,0.2075943208294795,0.3724030263580273,5.014015539274248,-0.4442069759323259,10.498328921295109,3.140214764914002,2.2247016399369444,0.2791081840918253,1.7245985618326756,0.5946313824800842,1.7326166483502714,1.5277551876336908,7.24755317891072,6.691358834876799,1.1333227024582864,1.201957446502329,-0.0686347440440431,12.501019460021846,10.793226574677158,1.7077928853446878,4.385135664069588,3.28705072320026,1.0980849408693276,0.3425595083001301,5.03140577842268,-0.4732777037448405,12.648307907557784,-0.4253388744752411,1.6838307187606525,0.5087983555434262,1.168675206515089,0.4411833034662454,1.2563142236575215,1.1239506160715884,5.830506319899365,6.624866131589505,1774.7425206218954,1.3780837306679328,1.1778578600597518,0.2002258706081804,14.55100450449239,10.364971365495762,4.186033138996626,5.176754215926897,3.1164358744143072,2.0603183415125885,0.3417183512147296,5.133778925148956,0.1470164522520236,11.871860540832651,0.6021066021214375,1.207598987545775,0.9302513876046624,1.5362409058274076,0.5668925093893185,1.4091310944566553,1.1304709736999847,8.03301253287276,5.618153714672292,1.5,1.75,-0.25
2023-09-16,15:00,Fulham,Luton,H,1.0,0.0,23-24,1736.46740723,1592.94726562,143.52014160999988,1.6466666666666667,3.796666666666667,5.218333333333333,6,1.67,3.75,5.5,1.4358743786321826,1.830926994426639,-0.3950526157944562,11.913281422550307,12.696089020739011,-0.7828075981887068,3.740948306460624,5.8597593914685655,-2.1188110850079416,0.3114894032797551,5.390423226982917,0.1847964868829706,11.09467720979557,0.9673600677297004,1.3834094746708456,0.301579229529485,1.1847090932505986,0.4310526602602214,1.1596758530754867,2.022631991194345,6.9737723529746685,8.087726175538927,1785.6025252268198,1.3236515622861746,2.0375261316824456,-0.7138745693962707,9.468036332669502,14.084073771850331,-4.616037439180829,3.305443837465041,6.528417205906316,-3.222973368441275,0.3543894253845149,4.691187284379893,-0.9920052006079182,10.397716529951987,1.1820785669202256,2.127317223512119,-0.7874512299139304,1.0589226441409878,0.3871478080879206,1.1842133394865664,2.246377728957124,5.917571945193122,9.974966896603569,0.4642857142857143,3.4642857142857144,-3.0,10.071428571428571,22.714285714285715,-12.642857142857144,1.9285714285714288,9.857142857142856,-7.928571428571429,0.2034632034632034,5.392857142857142,-0.6071428571428571,12.0,1.1428571428571428,2.5357142857142856,-0.5357142857142857,0.0,0.0,1.1251191071428572,3.856788928571428,4.464285714285714,17.0,1781.06811523,0.66893039049236,2.904923599320884,-2.235993208828523,12.336162988115452,17.475382003395588,-5.139219015280138,1.5738539898132429,7.237691001697793,-5.66383701188455,0.1496147810876164,6.770797962648557,0.770797962648557,10.471986417657048,2.616298811544992,1.9490662139219013,-0.3310696095076401,0.0,0.0,1.467898735144313,2.8515435823429542,5.814940577249576,12.797962648556878,1.0,0.0,1.0
2023-09-16,15:00,Man United,Brighton,A,1.0,3.0,23-24,1860.99414062,1839.81298828,21.18115234000016,2.15,3.8866666666666654,2.92,6,2.15,4.0,2.88,2.0204349014354404,0.6526184461518648,1.3678164552835763,18.469428231706605,11.898464416659698,6.570963815046905,6.755477056327182,3.1434674007251804,3.612009655602003,0.3703479733230865,6.932759121563192,1.982735717330172,11.772688305488224,-2.659064177369652,1.943788284115041,-0.0813676776257934,2.754486540984582,0.9353732394747504,2.613487808096472,1.1303564002810238,13.151443158177504,6.654162189096529,1748.672671434152,1.4768038201772893,1.2924842531230194,0.1843195670542698,17.401506032050452,13.962426684809008,3.439079347241453,5.86811472537528,4.2116666005327374,1.6564481248425422,0.3314523330044863,6.323783378083396,0.4399784872896488,10.61063282267553,-1.9126837839819588,2.255069335937687,-0.3859780874556504,1.8338122323192096,0.620771625527194,2.239790971320585,1.569985684946014,11.785976034490696,7.925537573055444,1.9786192327878704,1.6701219920951331,0.308497240692737,13.880041361598892,13.02604874078306,0.8539926208158348,5.4952527295987,4.257331767430104,1.2379209621685965,0.4030964075558698,4.271511115522448,-0.0771920540891048,12.080302422257072,0.2879891995320046,2.473727500278054,-0.2093223048755605,1.487812451680454,0.5197673033180085,1.9305153867079337,1.8629872177698368,8.374103281993447,7.593968842335078,1789.959033671115,2.302324535449728,1.5794123351776623,0.722912200272065,18.55479513649313,11.54914098822926,7.005654148263875,7.206472126512381,3.581758032399521,3.624714094112861,0.3940685544703743,6.476449231770363,2.57111798464682,12.294929592785628,0.4309972873778029,2.642737959873154,0.22491867685067,1.7820033627560554,0.6113081881169747,2.205693998756604,1.8739535169910777,11.82783824606862,6.950589770225018,1.5,2.25,-0.75
2023-09-16,15:00,Tottenham,Sheffield United,H,2.0,1.0,23-24,1846.953125,1630.78259277,216.17053223,1.2666666666666668,5.721666666666667,10.326666666666666,6,1.29,5.5,11.0,1.7700986826628098,1.229916619422264,0.5401820632405455,15.478605590693013,12.616119814744426,2.8624857759485844,5.801183106496717,4.434428517314752,1.366754589181966,0.3733995374740212,5.801917506855037,1.1067333898271343,11.64329866861477,-1.3961151827455551,1.8856755653496755,0.3637336232322846,1.915519010322908,0.6533169566128315,1.7657032869824716,1.2768770572747588,6.372850300306098,7.033993342787856,1786.1620961101537,2.346619170156889,1.5843662537601249,0.762252916396765,15.231776578561876,14.000932230689694,1.2308443478721856,6.093849486317585,4.484604860251667,1.6092446260659174,0.4058329231255905,4.492231329499508,-1.5273785648354845,10.593568731379806,0.975227972748691,2.219888834344256,0.0447136363932185,1.863223626607323,0.6489163849103753,1.8239087751064385,1.5333895759511205,8.967427288922721,7.877082195075001,0.4516328781168862,1.8338717978500976,-1.3822389197332117,7.563527754676015,15.618396795549808,-8.054869040873795,2.0435263256677496,6.190428255108603,-4.146901929440853,0.2806267678066749,4.373680769566127,-2.362220100749478,11.183394222023262,-2.872114561581941,2.1915304803577365,-1.335542371073521,0.4587262339663878,0.1593865095351924,0.7405306539787657,1.8245415462161017,4.611727300172469,7.132635621418728,1766.9779793125772,0.7487148451741178,1.588322242709072,-0.8396073975349543,8.757962617926792,17.927303725452695,-9.1693411075259,2.824232679544972,6.2465267990506605,-3.4222941195056884,0.3029124874518015,4.2587808639304034,-3.076789167086289,11.486540723188146,-3.9703780611592254,2.217383247114088,-1.313825558238538,0.7445199185636311,0.2709815249405792,0.7972626244957547,2.1415581516878586,4.101581378868601,8.914150654071126,2.5,0.25,2.25
2023-09-16,15:00,West Ham,Man City,A,1.0,3.0,23-24,1807.54907227,2087.37011719,-279.8210449200003,6.438333333333333,4.533333333333333,1.46,6,7.0,4.5,1.45,1.7583219076995855,1.2702388632065886,0.4880830444929968,13.518463114589604,13.554231741220685,-0.0357686266310811,4.504960690203191,4.141989788897007,0.3629709013061837,0.3292040720789363,5.911998648989771,0.8315765921720336,8.513510152455055,0.1656573919046307,1.009591845299832,0.6321420321871783,1.8454190968832067,0.647119939169172,1.6761230939387055,1.3729785270058554,5.497620372063071,8.854315383885954,1787.7643803587532,1.7854531836953529,1.3890547111122875,0.3963984725830654,11.964426764052249,16.648520573150794,-4.684093809098544,4.011943531048153,5.015093885322438,-1.003150354274284,0.3672901568083455,5.052634833275539,-2.98449651416686,10.018433453110266,-1.3008928061845575,1.55197505247208,-0.2183889129516677,1.7903893029977354,0.6210281677378447,1.5808108264077705,1.7958656262487558,5.6704007403434975,10.787715526779008,1.9565472885631647,0.7290846125758569,1.227462675987308,17.027500802661486,8.323759524825329,8.703741277836153,6.009632043620707,2.426110051696938,3.583521991923769,0.3757690665240871,6.139520312254384,2.8899591352066016,8.220932363604518,2.8059127861685784,0.921241175566632,0.9022452531215166,2.188689352290192,0.7555959082931225,2.2620145427780383,0.9677365024748512,12.019273746662856,4.335729107888092,1740.746294476092,2.374215116198485,0.6420838218229108,1.7321312943755742,15.529993415526018,7.927651614203528,7.602341801322491,5.658451599830478,2.7901270394888327,2.8683245603416454,0.4031563654112317,5.671584839513272,2.6261710771526534,8.827464238155311,2.625494241728774,0.8749823470091155,1.6314260802052016,2.5692699478652514,0.8698201574746026,2.15638101766609,0.9159980788009132,11.48206091558028,4.499605905114349,2.5,3.0,-0.5
2023-09-16,17:30,Newcastle,Brentford,H,1.0,0.0,23-24,1865.72692871,1826.35632324,39.3706054700001,1.515,4.25,5.883333333333333,6,1.53,4.2,6.0,2.1301592905723807,0.985241783682107,1.1449175068902735,18.97556392139919,8.636885070598957,10.33867885080024,6.812783467271798,3.3427145394594846,3.470068927812312,0.3685254953917258,7.556070574285793,3.601080406864724,11.616755857347798,0.0969211168357666,1.6886468380447175,0.561737617536877,1.841961425433806,0.6464689248983313,2.6524905300304287,0.902556329866262,10.044958793314198,4.173118863624723,1813.3545822817207,1.7712494639593792,1.4306975137974167,0.3405519501619625,15.506121260580732,11.514875080366982,3.991246180213747,5.450592583910844,4.18686169776871,1.2637308861421332,0.3366460843275189,5.6901758218893175,0.9317276099606512,12.643181984070566,-0.7103159014173573,2.219758849753197,0.0187230789968826,1.2484131157232288,0.4531438250302206,2.02078607901101,1.1670653864159528,8.473166799401836,6.620584697014357,1.5267277759264752,1.0626387737069376,0.4640890022195371,9.861091055464886,16.12844699237001,-6.267355936905125,3.705267350014437,5.734270225129,-2.029002875114563,0.3491751209747349,3.26890104764066,-3.4933426447696,10.42603258929523,1.1858902848922654,1.5614485542255507,0.1413833267044769,1.569578904620446,0.5539632791618533,1.471696862650648,1.406841100966769,5.988183398791276,8.338164720464722,1800.2076876334022,1.68319816705133,1.0309327685128131,0.6522653985385166,13.128716741258566,13.837786993653037,-0.7090702523944677,4.889530505146288,4.710138640050346,0.1793918650959409,0.3680577260093486,4.619166277748916,-0.4450577692167065,9.540010742445531,2.3216899108185567,1.3964394833826272,0.1872507204431337,1.713742535852269,0.6438346652416046,1.9278913098563115,1.2945559351250184,8.328062814354587,6.5878756299777885,0.75,1.5,-0.75
2023-09-17,14:00,Bournemouth,Chelsea,D,0.0,0.0,23-24,1659.02856445,1774.23071289,-115.20214843999996,4.258333333333334,3.866666666666666,1.7533333333333336,6,4.33,3.75,1.8,0.939870627516255,1.684701838352852,-0.7448312108365966,11.54542244642623,15.783323567217607,-4.237901120791378,4.13744172653813,5.264871217715261,-1.127429491177133,0.3640371982079288,5.34596274244257,0.0418194960121219,10.788927184191255,-0.3437317385821063,1.288827407984677,0.774297461411173,0.876960142189658,0.327299035288052,1.2842515873072684,1.7919222400181902,7.129808595845284,11.094912113902236,1796.32955641676,0.9532587800759424,1.7897561093020962,-0.8364973292261542,11.121238820778917,17.814351362234916,-6.693112541456,3.9680187274420806,6.034058782007187,-2.0660400545651063,0.3611716158549217,4.165727601798439,-2.2646759723546417,11.637002787634026,-2.0734750962179893,1.82455296826524,-0.3223332042965811,0.7683489736457348,0.2957382697406588,1.22758957246493,2.043631292699469,6.378048441939437,11.382606295077114,1.076804763695281,1.837060637525503,-0.760255873830222,12.67954931294231,12.637976750913063,0.0415725620292448,4.394635165629484,5.183085593240302,-0.7884504276108191,0.3557870643196875,5.193579822973048,0.4988301294556067,9.833351517087214,1.798563521780381,2.252521573564556,-0.9327111983822698,0.7816104206452393,0.2832829017226189,1.3347106598983487,1.849430971916788,8.997023005463678,7.908503402955331,1818.753268281193,1.092494223998,1.4615708904488152,-0.3690766664508146,15.588266773842816,11.803514488808144,3.784752285034671,4.563623713580024,3.816569998711714,0.7470537148683108,0.3128819036873864,5.9866601030992665,2.2974717929745085,9.816396914759933,1.895456141268192,2.234472756245922,-0.1873461022281795,0.8656957710082283,0.3343458447411421,1.835003908026544,1.5143476263894065,12.231311561787772,6.200091892315699,0.5,1.0,-0.5
2023-09-17,16:30,Everton,Arsenal,A,0.0,1.0,23-24,1682.15698242,1928.76647949,-246.60949706999983,5.933333333333334,4.411666666666667,1.5,6,6.0,4.5,1.5,0.6381827036992553,1.482149432540825,-0.8439667288415699,13.44565753289834,11.598476594889569,1.8471809380087727,5.705991969546897,3.807631638897208,1.898360330649688,0.4208878433566768,6.273636061438951,1.4956057053133156,10.27764920467832,-0.2681622435041569,1.6876765628998542,0.4748862299971461,0.8906832830698813,0.3104851343287506,1.5374145093565528,1.446894829631092,5.320696973618979,6.641426838360559,1787.478462008631,0.9469679004931816,1.759643576768917,-0.8126756762757353,13.823638039289824,12.99190584644418,0.8317321928456463,5.262759554005967,4.877384132704429,0.3853754213015367,0.3806558143112001,6.0531041208715415,1.0376925047451564,11.41990046225082,-1.0980678141940887,2.006995495514073,0.2561618572819271,0.8131097293640989,0.3266693063800291,1.805683572227704,1.8523745839371144,5.1662106355678326,7.515813007334197,1.5436016965204074,1.0669599089398945,0.4766417875805125,12.12336175610636,11.620053889439223,0.5033078666671369,4.0980140261242655,3.778133797081469,0.3198802290427956,0.3478201233958661,5.24092386710154,1.139183491050588,10.297396443160642,2.067352084347392,1.6329375490162457,0.5811453613473211,1.842505958790823,0.6408279128787375,1.5804552493067656,1.434685167763502,8.72060999390267,7.439269561051742,1799.714833194609,2.1752478576945884,1.2249536718754006,0.950294185819188,15.0869158250233,9.532485816104348,5.554430008918951,5.833214683721176,3.1942433980666096,2.638971285654566,0.3865816768671555,7.324196127798602,4.167233382232191,9.571149016440732,1.389152166208881,1.1189134289456326,1.168074311113822,2.0574151321655902,0.7209628683627476,1.9655380894555805,1.1944431492679264,11.881932294123969,5.4195042710067005,0.25,2.5,-2.25
2023-09-23,15:00,Crystal Palace,Fulham,D,0.0,0.0,23-24,1753.1595459,1732.76599121,20.393554689999974,1.91,3.415,4.051666666666667,6,1.91,3.4,4.2,1.3356714473927729,1.1581797462010597,0.1774917011917133,13.848462872242704,10.821887759351812,3.026575112890889,4.498237941052041,3.8208103579481616,0.6774275831038796,0.2937016720603585,5.233830061768958,0.984186231175561,10.881454212190588,2.154102919973027,1.4540059668649992,0.685680096891847,1.6216385594993723,0.5957441025008742,1.2796502346952765,1.2506139838658548,7.896492955496416,5.937899292123164,1759.3260775507847,1.327672566578875,1.4208101453851183,-0.0931375788062436,13.410870570560071,11.116308516762992,2.294562053797076,4.886520320469977,3.3675777578257327,1.5189425626442432,0.3628225710527657,4.715941735129095,-0.1392524080482462,11.488945802054964,1.0551590551719126,1.4465857892063383,1.0728845359240406,1.3314087850504197,0.4913068414707426,1.3701749485291017,1.2884321772066534,7.895277528489726,6.735733219382654,1.2227711265413477,1.6696789094412658,-0.4469077828999176,8.909748944368834,14.30881291315825,-5.399063968789418,3.285170277312735,6.01201715604303,-2.726846878730296,0.3619460979911427,4.305957933791674,-1.5530925554099817,10.43181319187381,0.6331142442971623,2.516403225203399,-1.3796124028196988,1.142811082244108,0.4092158094063499,1.1936698850722345,2.0844930589092736,4.856749535274563,9.35452155882638,1851.6259966288587,1.2804980189125543,1.76585596986596,-0.4853579509534055,9.938964840585774,13.13953056428452,-3.200565723698745,3.131384652136401,5.924628220836817,-2.793243568700416,0.327650321437393,4.865695653480606,-0.3264044804257168,9.811354302377234,2.091134794556153,2.110341593027811,-0.6824577283696521,1.3177329686638444,0.4688614369623948,1.2605902306265986,2.1411340275303576,6.328562369029105,9.044971272989034,1.4,1.4,0.0
2023-09-23,15:00,Luton,Wolves,D,1.0,1.0,23-24,1581.82861328,1695.98669434,-114.15808106000009,3.26,3.336666666666668,2.1933333333333334,6,3.25,3.4,2.2,1.0,2.0,-1.0,16.0,9.0,7.0,1.0,3.0,-2.0,0.0625,9.0,3.0,8.0,5.0,1.0,0.0,0.0,0.0,2.02244,1.22528,8.0,6.0,,0.4642857142857143,2.322153734590283,-1.8578680203045683,10.703680203045687,16.106236403190717,-5.402556200145034,1.7042240754169686,5.6353335750543865,-3.9311094996374174,0.191251458763016,5.311276287164612,-0.6887237128353879,11.55130529369108,-0.6315264684554026,1.96464829586657,-0.2297860768672951,0.0,0.0,1.4645798010333575,2.51670406182016,4.953770848440899,11.6360587382161,0.7480145053008346,2.138762332515704,-1.3907478272148692,11.013257084791483,16.384121890151754,-5.370864805360268,2.627702558180661,6.917885825831726,-4.290183267651065,0.2252999658193511,3.9311296375922153,-1.7916550711699006,12.128818433519616,-0.688260697529512,2.418007759393264,-0.6970460322025921,0.6543933584165424,0.2404033803875641,0.8921006754930363,2.22229528928551,5.492969733030144,9.854402624835792,1782.0751067526453,0.94981792478302,2.135578060182278,-1.1857601353992584,11.725981065215931,16.18243892121718,-4.456457856001249,3.20977027644974,6.4443354367474495,-3.234565160297709,0.2599816721130893,4.035014882461276,-1.6097597766289882,12.643077034049114,-2.440645013712759,2.543490713710934,-0.1066799471489728,0.8484602715430383,0.2979457063804281,1.1020088512020607,2.306233383473624,5.969562323790884,10.865087766695034,0.0,0.6,-0.6
2023-09-23,15:00,Man City,Nott'm Forest,H,2.0,0.0,23-24,2084.56982422,1679.07067871,405.49914551000006,1.1366666666666667,8.131666666666666,16.651666666666667,6,1.14,8.5,15.0,2.8504766002510675,0.6834583784466133,2.167018221804455,14.601871029688445,7.044445125534102,7.557425904154344,5.538476958034996,2.7664316627751586,2.7720452952598373,0.405797428613329,5.976438856153825,3.541537775462344,9.75547674835381,1.418192231916508,1.0711309407562757,1.5500689143947288,2.8667780157928338,0.9603363399774656,2.1712749200820927,0.771341548874465,11.342035480434353,4.183450055621498,1768.6846263632413,2.457653100705354,0.6898059789131893,1.7678471217921643,17.32599429345588,7.670631398976392,9.655362894479492,6.903991386519748,2.8181101008903218,4.0858812856294255,0.41836770059778,6.382040194244835,3.209348266865633,9.117135673067937,1.7420950094982708,1.0249847007412334,1.5472359361778414,2.626700621483218,0.8871774698113223,2.422258215310612,0.913282601627458,12.084452793502908,4.0329917844324354,1.0569285369979775,1.9242937131366928,-0.8673651761387152,8.424089605982886,16.522951412711933,-8.098861806729046,2.9382055843496087,5.598976518858881,-2.660770934509272,0.3706583583249552,3.393909172368493,-3.597184000836699,11.684800759579757,-1.192748359881955,2.409305933726896,-0.4454654638736119,0.6993596787009428,0.2691825954760032,0.9364410145710352,1.891780818253576,3.363714169261352,11.512416664055769,1794.74791881563,1.4038837589615136,1.4778475072842938,-0.0739637483227806,9.68299945305461,14.661822438507782,-4.978822985453171,3.321656977283418,4.756459591896409,-1.4348026146129924,0.3631903624145552,3.386879457927476,-3.374740508750287,11.719147799581735,-1.2898515203637206,2.4741437980051257,-0.2291167843462883,1.350727057191327,0.4993414498849406,1.0724651286861264,1.6364599705340537,4.772536070661178,9.799568324244689,3.0,1.4,1.6
2023-09-23,17:30,Brentford,Everton,A,1.0,3.0,23-24,1813.14941406,1671.26208496,141.8873291,1.7633333333333334,3.691666666666667,4.433333333333334,6,1.8,3.8,4.2,1.640155714655735,1.1182132693763704,0.5219424452793646,13.642389060205266,12.596119227122326,1.0462698330829443,5.2560016380945385,4.32250158984442,0.9335000482501185,0.4029349777524488,5.238413066134213,0.9221342000067796,8.956959626650258,2.35926422983698,1.2970324736929404,0.2172740188251662,1.685288676750005,0.6523279947710484,1.968899609660271,1.2470575212708328,8.424017210975652,5.911963188716968,1776.8636713247622,1.458769669398161,1.0268083612377357,0.4319613081604259,12.844885217721009,13.19274276285185,-0.347857545130844,4.504256208341992,4.348783479781952,0.1554727285600383,0.3432255571509092,4.4032754442872495,-1.0523890162216183,9.868012343280832,1.4787901280795854,1.876918662113844,-0.1043854058246374,1.485241418031169,0.5579892493626568,1.7553279394466232,1.322116731974009,7.75098243594866,6.776160620460343,1.2487035569246518,1.915436698302688,-0.6667331413780351,12.37507101774335,15.9360316275451,-3.5609606098017514,3.8711689874755337,6.018194228655729,-2.147025241180194,0.3189494751661031,4.493407086764978,-1.708284357220513,11.855808908598908,-1.1896774774927614,2.3059147221514444,-0.2182795530573848,0.8523833617606174,0.3733938296426847,1.6698305606083252,2.262142677146893,5.160081023501354,9.072391292861854,1765.3933514854048,0.8207055137607573,1.658357766533061,-0.8376522527723039,13.047152967384514,12.99298506691829,0.0541679004662266,4.694391613471838,4.760399581677172,-0.0660079682053349,0.34656837240304,5.379356904755335,-0.4339998292208646,11.497247067284045,-1.21832543896821,1.87272942944553,0.2220069429776701,0.704695098782219,0.2831133988626919,1.602681762597343,1.7124053060788325,4.877382550825455,7.847037939689637,1.2,0.2,1.0
2023-09-23,20:00,Burnley,Man United,A,0.0,1.0,23-24,1696.51257324,1835.94836426,-139.43579102000012,4.285,4.034999999999999,1.72,6,4.2,4.2,1.73,1.0371861964855231,2.3108916141480327,-1.273705417662509,11.48133263815558,14.681051601447397,-3.1997189632918124,3.5594500301807743,5.988605895969051,-2.4291558657882764,0.2996608997527561,5.585682419627644,0.1146301451414118,10.997750998255292,-1.679920073252005,1.7725826505990374,-0.6769047594210208,0.7442862958990101,0.2647188132760801,1.1797592771624466,1.898000794101533,5.500525490618878,8.944583439042514,1800.506492772586,1.0026451849238365,2.06401074176949,-1.061365556845654,11.091711866975412,15.727330433570064,-4.6356185665946485,3.333930196913487,6.161258406445644,-2.827328209532157,0.2883580166265693,5.310223230539213,-0.7527476040136746,11.333904407839317,-0.7627106098188322,1.9404380584084515,-0.7022797658800024,0.7138424461418976,0.2818194221317792,1.118557676046809,1.7548765382202096,5.230788096898726,9.129807079409762,0.8707159414355463,1.7515313761851012,-0.8808154347495544,14.927620362018994,15.362426497751883,-0.434806135732893,4.745508832262298,5.022406712135647,-0.2768978798733488,0.3283232566199165,5.081737299895142,-1.3115829539027557,9.71563085642716,-1.6325192153437802,2.211157687337318,-0.7951860047194306,0.960016575820531,0.339533336940804,1.535855420731288,1.8683392282310387,9.297416104300762,7.899989580315174,1793.610818957941,1.413229977486984,1.5201530193732835,-0.1069230418862995,16.947971894443725,13.434103126834472,3.51386876760926,5.619032761991909,4.716777720461707,0.9022550415302032,0.3253539266991262,6.547278927672277,1.3146480223176955,10.262548446318792,-1.5243259461176977,2.221060091145996,-0.3345143424615636,1.5893039346766482,0.5380020754569014,2.0371456418111737,1.6191982602865456,10.881179229891936,7.402132563314718,0.25,1.2,-0.95
2023-09-24,14:00,Arsenal,Tottenham,D,2.0,2.0,23-24,1930.57763672,1842.04785156,88.52978516000007,1.6783333333333337,4.196666666666667,4.353333333333333,6,1.67,4.33,4.33,2.677459651267692,1.360006496161194,1.3174531551064983,17.443859143333565,7.877239587945681,9.566619555387888,6.685950287258009,3.237955025029689,3.44799526222832,0.3897271120177141,7.796134092740505,4.866184914210381,9.174429453412245,1.4115533165665035,0.8787178668330604,1.3742537968352089,2.227862944890432,0.778794329380224,2.229322815055153,1.0767727528781863,13.887687650114517,4.049653418852451,1769.9871687473535,2.01854814333531,1.061626515625347,0.956921627709963,14.80866038168686,9.3281543739571,5.480506007729757,5.5887860592250185,2.9016776116577283,2.6871084475672906,0.3760630943105092,7.814303310758789,4.944935597934566,9.628329147581969,1.470598544047697,1.103058305086215,1.0123310696319792,2.1830931145435115,0.7581678192477146,1.8104803441948365,1.0729400626988697,11.631007988240771,5.096903701539141,2.3710333265400148,1.9228902268928705,0.448143099647144,13.845301793982737,14.298700639147349,-0.4533988451646129,5.571736226194203,4.664019799932376,0.907716426261828,0.4066956977300568,3.996195571116251,-2.4124088902877823,10.382200225271708,1.358616653682741,2.340248806077682,-0.3103898199589169,1.5586767090203502,0.5590440627867871,1.6489467296385354,1.6035945936755862,8.859347281282384,8.051938301755749,1747.525103037795,2.3004032808026373,1.506450753258775,0.7939525275438629,16.93420636808696,13.067474599931067,3.866731768155894,6.614669554808573,4.553324212218112,2.061345342590462,0.3993409143278928,5.893267152232908,0.4096052438092471,10.914426233862498,0.9785309097155322,2.723903656431689,-0.0945815151258773,2.0147938097263465,0.695727533588992,1.8685996050922469,1.4343582991576376,10.571770317066358,7.360137902398335,2.6,2.6,0.0
2023-09-24,14:00,Brighton,Bournemouth,H,3.0,1.0,23-24,1830.11193848,1653.51000977,176.60192871000004,1.3583333333333334,5.263333333333333,7.441666666666666,6,1.36,5.25,7.5,2.238353532068003,1.418006889587332,0.8203466424806711,20.879457058020915,9.745856800572463,11.133600257448448,7.763135160982394,3.087052313037875,4.676082847944518,0.3737134908889624,7.959268686283125,4.5325474087372335,11.70379299305876,0.2753606548561473,1.9690087087499688,0.960195648379259,1.8773348761906288,0.6528998834411965,2.3454410807587367,1.504076303317302,12.911526187345912,5.903277446425221,1804.9848715735773,2.395347930723098,1.5021573571539737,0.8931905735691235,17.414155784960712,11.875922189798692,5.538233595162021,7.312275842977397,3.637523628079585,3.674752214897813,0.4481927472076579,5.746256000867645,1.2949689200272398,11.855605647080877,0.2401976490607619,2.5570395652234,0.1949295199372473,1.944402914388582,0.6631337630347116,2.170145465589057,1.7200865147256,10.784126479926131,6.690511134195015,1.010588916571988,1.8672039735711483,-0.8566150569991609,9.809966426655835,18.56321970355179,-8.75325327689596,3.5305473581492395,6.2806782821782114,-2.7501309240289724,0.385314309035954,2.991851911704127,-5.195732983789616,11.1703888701997,-2.23174500320874,2.3460117429300555,-1.470792862551633,0.9217764927382092,0.333906628783513,1.114814323256917,2.051091029078175,4.969688584596976,10.458744709254072,1773.4247907696515,0.8261576093991496,1.5511219613951492,-0.724964351996,11.371740311341728,17.305771180603596,-5.934030869261865,3.97228289711647,6.029517611072895,-2.0572347139564253,0.3540410414332398,3.743630588225313,-2.7627191760406906,12.08540241594949,-1.1303450833889213,1.714612572496541,0.2539778896096314,0.799235777159637,0.3229731671085711,1.2405976294696064,1.9573831203395384,6.727641983014185,12.131592122400178,2.4,0.6,1.7999999999999998
2023-09-24,14:00,Chelsea,Aston Villa,A,0.0,1.0,23-24,1764.92932129,1814.9901123,-50.06079101,1.873333333333333,3.741666666666666,3.805,6,1.91,3.75,3.8,1.0569520709440765,1.0310205903484364,0.0259314805956404,16.051808484207356,10.814793643229155,5.237014840978203,4.557422163047707,3.0049529327896303,1.5524692302580767,0.2935050135111181,6.128878053618664,2.5935084292193857,10.18949590903598,1.960090697135801,2.069096731280303,0.3641068461266028,1.0947508992243284,0.4327181183278512,1.899467779899897,1.138414384914337,12.268590668708342,4.605542901231017,1736.9981626107976,0.9468283274649332,1.2666947717223065,-0.3198664442573727,15.376497870663774,11.963045890300393,3.413451980363382,4.755140551769355,3.841027332216819,0.914113219552536,0.3283071736719253,6.121772089352698,2.791142220577908,11.174210659458607,0.9760619890990992,2.603209722079799,-0.6956999552644223,0.8836030015404646,0.3564330654423231,1.7765727202896715,1.4891212762041524,12.867136686882738,6.573412973340273,1.0919408217278086,1.709386832450631,-0.617446010722823,11.51425549597227,12.827396406456266,-1.313140910483998,3.730103643610516,5.28194674904815,-1.5518431054376332,0.3309020334909454,4.279135210126029,-1.975529411713239,11.064918736568472,2.4759934053602355,2.003686150473203,0.1431303321509766,1.1596918567902927,0.4210178371777334,1.3220320641271175,1.835205559275056,5.591485962930743,8.292455425107313,1814.3546009358847,1.8120614487013191,1.3801224429325978,0.4319390057687217,12.5036193865783,10.157067855798884,2.3465515307794176,4.47066325018173,4.024081505462844,0.4465817447188829,0.364415956176957,4.878813467371015,-0.1183127124746815,10.831885065122428,2.1881861295921325,2.5947414212786857,-0.0247729071204189,1.8946520869216528,0.6486805314827397,1.810291761903607,1.4729824959491715,8.147879421723067,6.732510990226579,1.0,1.8,-0.8
2023-09-24,14:00,Liverpool,West Ham,H,3.0,1.0,23-24,1960.77502441,1796.79309082,163.98193358999993,1.38,5.170000000000001,6.951666666666667,6,1.4,5.0,7.0,2.3941617110586373,0.7789358118186982,1.6152258992399389,17.290973339269566,8.612525124260674,8.67844821500889,5.759173284492634,3.5172478094166904,2.2419254750759445,0.336893318082192,7.202759958282289,4.070110814054235,11.937903582727076,-1.73953997377546,1.5608500364716225,0.5893490746554017,2.53370117250634,0.8786639942731366,2.485418050796101,1.0145564892732273,11.155192909232523,4.346557291273144,1786.5688620905396,2.413537892041224,1.0646299770530832,1.3489079149881409,16.271250603161672,11.126022566914674,5.145228036246997,5.201009626381143,4.317680039900382,0.8833295864807602,0.3294773810165458,6.519160817222321,2.973304127827333,10.96491472219382,-1.416258711894674,1.846643797704824,-0.1985368851888859,2.385931029859764,0.8361254581008721,2.2460228720218245,1.1367234922082303,11.450106597380827,5.562352487010812,1.3811895288501823,1.592951087219578,-0.2117615583693959,10.783493721609505,16.93223138539695,-6.148737663787449,3.426391293758884,5.489068495334838,-2.062677201575954,0.3726841472792777,4.71119400379453,-3.4872076235721323,10.640763380723968,-1.906532189415159,1.6959628535841629,-0.6793053864108213,1.245284594979105,0.442591286532544,1.3471764341432295,1.9331100786516016,5.105111185567294,10.383138043244578,1801.3753396033344,1.6807260925359726,1.6038474162973162,0.0768786762386566,11.169169862178617,18.295384496730687,-7.126214634552071,3.877017726908399,6.34641470061278,-2.4693969737043795,0.3849848025672327,4.9122835221721335,-3.519896978944612,9.61597565936223,-0.5941070986932832,1.7450450454758026,-0.3226037245581121,1.551670729264704,0.5382244120394655,1.489453649553401,2.109811542748921,5.047680641631032,11.48268678987514,2.6,2.0,0.6000000000000001
2023-09-24,16:30,Sheffield United,Newcastle,A,0.0,8.0,23-24,1620.86791992,1865.42749023,-244.55957031000003,6.925,4.638333333333334,1.4233333333333331,6,7.0,4.75,1.44,0.8190981548459404,1.425898013865543,-0.6067998590196024,9.324558591135718,16.953074559956935,-7.628515968821216,3.138269148475324,5.765191873977068,-2.626922725501743,0.3132964699916514,4.27698393540475,-2.700440046095632,12.083339465774724,-4.476728822069813,2.01779240403828,-1.0676964236254556,0.9504130357183784,0.3414627337996927,0.869884602170417,2.1147755138382163,4.347303483389178,9.16470514112324,1782.7749414296368,0.7822198423182817,1.6432131179456366,-0.860993275627355,8.523565434639158,19.27034231500481,-10.746776880365646,3.114337671655321,6.746994520534818,-3.632656848879496,0.3577627582519452,3.957607297001152,-4.399896180105366,11.821671725852848,-3.574323990535011,2.588402245125912,-1.0053126308648817,0.6452496780970495,0.2348503208288745,0.7963815997491341,2.143895753079541,4.088037069769836,10.525612135354113,1.4702897237784531,1.4810854394578843,-0.010795715679431,11.467642051928564,13.219560954639553,-1.751918902710987,3.939376914693904,4.4650858350098845,-0.5257089203159797,0.3250311636749562,4.874249145274808,-0.3451101039669056,11.857186942260082,-0.3904947112399495,2.104746391680906,-0.0645713571373201,1.233101539264612,0.4619793616193443,1.401281853657187,1.409503649764568,7.505275024238719,8.180817531212746,1770.3909598784217,1.6684162020981288,1.2399378452910943,0.4284783568070341,14.638638425836634,11.446225069651383,3.1924133561852472,4.9905135727227306,3.895280138066215,1.0952334346565151,0.321389569380146,5.998152378970742,1.4741639286325643,12.024091052861156,-0.0822737812283763,2.323791003119437,0.2828933351306317,1.481958033626798,0.5260579816928579,1.9515159351428752,1.095947068227159,8.410077892814924,6.27117340407911,0.2,1.2,-1.0
2023-09-30,12:30,Aston Villa,Brighton,H,6.0,1.0,23-24,1823.10534668,1834.3605957,-11.255249020000065,2.53,3.86,2.513333333333333,6,2.55,3.75,2.55,2.2646607669043126,0.8524586654753907,1.4122021014289217,12.782403048336665,8.102764135612098,4.679638912724567,4.9585742486695175,2.78386163803878,2.17471261063074,0.3991200118256868,5.337791809013817,0.9628456514031548,10.452245812242005,2.3788670349844896,2.664062763539685,0.0516172398499758,2.5011316763546247,0.8423492797804792,1.9401286236692303,1.0298973616874778,9.820037162176614,4.519508783233405,1782.1143027829896,1.7037865888744763,1.196106117208251,0.5076804716662258,12.836470135034526,10.1361254750257,2.7003446600088297,4.807908150157499,4.020870638067798,0.7870375120896994,0.3780493842422516,5.694971671721548,0.6974623158552781,10.854300389772773,1.6297613123131802,2.648775898441528,-0.1548031861710301,2.0420318086654325,0.6955231272850413,1.720224860316421,1.436206163155933,7.861495498826535,6.901509524863108,2.1148033434961766,1.5807723876291615,0.534030955867015,13.362702481424886,13.15590891670132,0.2067935647235676,5.82921905295107,4.223020862986387,1.6061981899646842,0.4560168898178095,3.835309606504575,-1.0002331705687029,11.669595407249613,0.116257295651598,2.4105638296721072,-0.1814126625012483,1.689437470579308,0.5837983334980646,1.9316573352174249,1.7105823793183983,7.79088947503046,7.248106308656598,1800.7675465626016,2.4759682066266846,1.435203042866777,1.0407651637599074,16.825601680299282,11.892465897825533,4.933135782473751,6.870639063913743,3.6858538110023074,3.1847852529114364,0.4294593552722778,5.513421867418625,1.1223063973569407,11.874858227470092,0.8748379625193287,2.616100956526947,0.1689389172789476,2.0851491924701047,0.7080492612967502,2.166836736843849,1.7027203127621868,10.41290961593598,6.331776316302346,2.0,2.5,-0.5
2023-09-30,15:00,Bournemouth,Arsenal,A,0.0,4.0,23-24,1649.26147461,1926.79016113,-277.52868651999984,5.69,4.55,1.5216666666666667,6,5.5,4.5,1.53,0.8145545371377421,1.460074914545488,-0.6455203774077458,11.739366130620208,15.545547078857556,-3.806180948237349,4.119116162018525,5.362888393934599,-1.2437722319160762,0.3565245457369366,4.766501012424664,-0.7637564799216748,11.350403589695013,0.3687658647107492,1.2503170848581324,1.20439115625111,0.8933654574427443,0.35032583181588,1.289704709291604,1.739235271861464,7.379167463083762,11.882257207538,1793.0291814564418,0.8493365948125964,1.7443056998757966,-0.8949691050632004,11.455508269829496,16.731668356523116,-5.276160086693614,3.975978510834274,5.7589152629298415,-1.782936752095568,0.3512800136865855,3.777813176461937,-2.394356619235264,12.740682093822894,-1.6462990722703998,1.885997562830336,0.2201141709950138,0.6926710068716851,0.2799100781607616,1.2871632788736596,1.982442704294267,6.363956385278955,11.580713172746814,1.4711214703164022,0.924698587745388,0.5464228825710139,12.240246855294249,11.13738003750544,1.102866817788808,4.084945489307465,3.407715957464044,0.6772295318434209,0.3424697479686302,6.00880068483494,2.3206256922647754,10.257743584071854,2.058371806434247,1.5485458758125843,0.5036593131663054,1.996838497621448,0.6887175244957544,1.4767418827127607,1.2811498120324356,8.891195328081496,6.8473669527986845,1781.8275446187663,2.016075057557269,1.186742980208634,0.8293320773486347,14.567505664128612,9.81773379076282,4.74977187336579,5.643614584661683,3.181453930103365,2.4621606545583186,0.3874598099409028,8.239062869324284,5.218944184876624,9.944551927904374,2.2078520715080043,1.355983864408053,1.010686927014382,2.02534736593771,0.7237454433480193,1.881469631635525,1.2247693876723538,10.613540256475334,5.617316541333922,0.5,2.333333333333333,-1.8333333333333333
2023-09-30,15:00,Everton,Luton,A,1.0,2.0,23-24,1689.38586426,1583.7166748,105.6691894600001,1.5933333333333335,3.873333333333333,6.048333333333333,6,1.57,3.8,6.5,0.553091676538048,1.4178628415343946,-0.8647711649963467,12.719569861834078,11.785346382240494,0.9342234795935844,5.0785263735976764,3.8332807537113074,1.245245619886367,0.3814361309085141,5.570484586569627,-0.0371417220853288,10.507295977391404,-0.499073944373815,1.5959863545117992,0.4115680659965544,0.7719255119920736,0.2690871164176148,1.370181907804718,1.360989518857301,5.0112707099067535,7.089236594060647,1808.579267888824,1.1112781119259896,1.5705767309953198,-0.4592986190693299,13.707532571733246,12.860587057995852,0.8469455137373965,4.868472731675593,4.392346304120215,0.4761264275553765,0.3448037005270791,5.195442650787957,0.0238668146752507,11.564280791646173,-1.455882047105782,1.8896988388527929,0.1924060172473141,1.0107357522779232,0.3786982790143329,1.724320194251031,1.6939539319349883,5.560398210715394,7.600766214397685,0.2869269949066214,2.522920203735145,-2.235993208828523,8.898132427843803,19.00339558573854,-10.10526315789474,1.9558573853989816,6.855687606112054,-4.899830220713073,0.2348833961737187,4.096774193548387,-1.903225806451613,12.76400679117148,-2.34974533106961,2.33106960950764,-0.3310696095076401,0.0,0.0,1.2519178353140918,3.0546777079796263,3.904923599320883,13.943972835314094,1757.1748788014286,0.6040527517380349,1.9772058482485664,-1.3731530965105314,13.12907581387439,12.686839379306434,0.4422364345679513,2.3031885013991884,4.947779077617616,-2.644590576218428,0.1935339397856984,6.534557129678779,1.8390494792337704,11.668369056024243,0.8377301704278991,1.452074561561732,0.3519616988162296,0.2608984699109982,0.1304492349554991,1.6671492519364466,2.05916118103906,8.09661360227993,8.861127287532018,0.6666666666666666,0.2,0.4666666666666666
2023-09-30,15:00,Man United,Crystal Palace,A,0.0,1.0,23-24,1841.6015625,1751.22265625,90.37890625,1.55,4.21,5.835,6,1.55,4.2,5.75,1.8843769145752924,0.965602653336422,0.918774261238871,17.873504467469907,11.645335827767852,6.228168639702054,6.3880801154779165,3.791005080638433,2.5970750348394844,0.3590634816417398,7.075057905356951,2.6517042883630872,11.269663198082071,-2.171188953712873,1.951283179566484,-0.0705186539421877,2.3872216688476646,0.8106568075428686,2.3610162335779648,1.238186213622008,12.064584069965717,6.300273897068911,1762.284116820008,1.358132647155386,1.3174659501235124,0.0406666970318737,16.15490897518456,13.242889376589876,2.912019598594691,5.403161727059655,4.621207357733479,0.7819543693261761,0.3304582516240912,6.340975070649307,0.6060282860086695,10.494208653476289,-2.121082486635338,2.1915854123265293,-0.4232457634666885,1.7773967433864286,0.5996017987293145,1.877562622903017,1.528031025581673,10.63035533257301,7.481848221539423,1.115546342130242,1.441696453639033,-0.3261501115087916,11.634216865338956,11.48746303139753,0.1467538339414259,4.200450908857474,3.515443960110399,0.6850069487470745,0.3635515738604352,4.6272183412934496,-0.6768406765819874,12.161866853209276,0.1647063087971845,1.8593199562619267,0.7076252414740224,1.012851845644018,0.382358863003176,1.2377336605013294,1.282781200611243,5.986438810595026,7.608217314142468,1782.7951065150107,1.1506495577016915,1.2313687926671024,-0.0807192349654112,12.556087827818727,10.967467381194592,1.588620446624132,4.634984277740647,3.5852340567823013,1.049750220958344,0.3715890853885874,4.487149503778549,0.0126479130248532,11.290419695114302,1.5811378478156577,1.6537076839788267,0.7964999311341685,1.287220947043697,0.4924659292746436,1.237132955391888,1.1889982869124331,7.242573858024429,7.0376354567983,1.5,1.3333333333333333,0.1666666666666667
2023-09-30,15:00,Newcastle,Burnley,H,2.0,0.0,23-24,1875.69689941,1690.859375,184.83752441,1.3166666666666669,5.528333333333333,9.025,6,1.3,5.75,9.0,1.9794713851276424,0.8538762124939046,1.125595172633738,17.64548873156959,8.951967061259129,8.693521670310467,6.171079004819471,3.163685934156533,3.007393070662937,0.3490183922979165,7.615261164394803,3.787603019326192,11.13452174292247,0.6173316347121747,1.863493926346135,0.7535059352432798,1.996366568745252,0.6936064015895297,2.498993125990629,0.8667058858757459,9.772297620808816,4.150036348469386,1815.296340804644,2.512627375151712,1.0746127992522816,1.4380145758994298,15.62015330239175,11.1200617270312,4.500091575360548,6.325111763026367,3.509242786324053,2.8158689767023137,0.3694467177052175,5.99839872844131,1.810942071481556,11.487545579146332,0.4620293896020739,2.013952202703512,0.6451742237798809,1.6843636291432251,0.5892502508004768,2.372407143790492,1.0270730591302046,8.7554008404396,6.101683616868562,0.8907969830808086,1.2275444118081562,-0.3367474287273476,10.165755474014848,17.28368259946836,-7.117927125453506,2.924540480006844,5.327234447311213,-2.402693967304371,0.2775252835325176,4.646143286027509,-2.971120452399168,11.05274020828664,-0.3891542079529151,1.864857305346305,-0.6201599405544233,0.9395680668159122,0.393158995018746,1.0256100056274282,1.4823625980530315,5.029558894311411,8.584720977164277,1751.9246956514849,0.8689591602673249,1.9221426428668915,-1.0531834825995667,11.21281695137869,15.097019709094054,-3.884202757715362,3.4227395039916884,5.873090618919558,-2.45035111492787,0.2943547255208045,5.802193466467318,-0.1190479234785178,10.62271715346074,0.1389841381570122,1.8150463172873248,-0.4753091304293354,0.6186634533229779,0.2442434991808753,1.0941425192405676,1.632929399790848,5.600016350645563,9.112499468821794,1.5,0.2,1.3
2023-09-30,15:00,West Ham,Sheffield United,H,2.0,0.0,23-24,1792.29077148,1610.59851074,181.69226074000017,1.4333333333333336,4.681666666666668,7.073333333333333,6,1.45,4.5,7.0,1.6572123200045163,1.5008736814497965,0.1563386385547195,12.516001365959896,15.613667509094414,-3.09766614313452,4.304299264839211,5.589724483736389,-1.2854252188971798,0.351976862468815,5.657065495786618,-0.2126336201360718,8.311708798790805,0.6769030729930713,1.2749795992645565,0.4145230945583655,1.5993632172944197,0.5608372806117536,1.5720576147450342,1.7433093900783023,4.89793765577737,9.807073332718042,1833.3515890255164,1.5899626135311762,1.7900010941243407,-0.2000384805931642,11.1466138805548,18.789333230499928,-7.642719349945128,3.893415363320612,6.433559407197742,-2.5401440438771288,0.3821383440431168,4.790645719215849,-3.450577381751997,10.0671789047806,-0.6482261522008453,1.7790390394123623,-0.5462565612836972,1.344781298696077,0.46646115710087,1.496030496279614,2.3808526703823985,4.507989889413561,11.81832855122512,0.5249881098213182,1.856094816472181,-1.3311067066508633,7.488144480649334,17.274687509726466,-9.786543029077135,2.439014681468415,6.700035791536966,-4.261021110068551,0.3386374530396427,4.056152792604386,-3.78523905682869,11.56017240805675,-2.621681244262533,2.567220276713007,-1.0231161789318726,0.3973622902894756,0.1380653291234922,0.7472358025365317,1.8692941915960857,4.529896358722184,8.987677046271774,1779.1918185387551,0.677923027464901,2.490791495061586,-1.812868467596685,8.587090552470382,19.6342995899076,-11.047209037437211,2.8324237227268374,7.847404070265309,-5.014980347538472,0.3248756083953432,3.696590898841465,-4.346576262096877,11.84544901963349,-3.631081246673025,2.6432823856078285,-1.2712730782660768,0.559215698172377,0.2035366937580597,0.7674494212415273,2.539139486981594,4.209633101654514,10.588864357569578,1.6666666666666667,0.1666666666666666,1.5
2023-09-30,15:00,Wolves,Man City,H,2.0,1.0,23-24,1694.09863281,2085.77734375,-391.67871094,9.018333333333333,5.583333333333333,1.3150000000000002,6,8.0,5.75,1.33,1.1647714753798122,1.5084456099519647,-0.3436741345721527,11.833548912583062,14.900508133653044,-3.066959221069981,4.185356051706172,4.521952355452349,-0.336596303746177,0.3625204909144095,4.89824841590486,-0.5115157152524396,13.036232696735642,-3.453595353225932,2.484689603599969,0.4413629774090029,1.4014508275760242,0.4882065633150249,1.2306606992435831,1.866588002792692,5.444460474103758,9.44224959329491,1804.8285139630675,0.9565088681452883,1.9841676521578744,-1.0276587840125864,10.562516923186374,16.691447065055225,-6.128930141868852,3.181800906256423,6.118424045180909,-2.936623138924485,0.3586507824980758,3.630346231466172,-2.5951251397457726,13.22400009617628,-2.7818923452179494,2.471025285216095,-0.3591226208626095,0.8686655686706465,0.3248862788630555,1.056805537708423,2.2975369323438017,5.306954013951662,11.683076064469567,2.09567431675688,0.765206664232964,1.3304676525239152,18.6238340289978,8.013924921510528,10.609909107487267,7.208347771156353,2.5026287114718544,4.705719059684498,0.3946320415625444,6.7875842706304175,3.437964583854136,8.591474715129605,1.8984577479988336,1.0650756854932897,0.9152792193721812,2.296864105319828,0.7881831205212065,2.513807270486292,0.9581225688085344,12.550037247273616,3.890965226697405,1750.7230247863802,2.396632687277973,0.5978318483914307,1.7988008388865426,15.949195054328433,7.981213879112873,7.96798117521556,6.516792534983781,2.842362087438279,3.674430447545502,0.4387758167085522,6.331101501678858,2.781435164616882,8.56818424999221,3.1098156748985013,1.2883200739757357,1.8742711446874625,2.676473871952122,0.9022204738364792,2.2779357866025296,0.8887261214104637,11.406525754369186,4.428592879841443,0.6666666666666666,3.0,-2.333333333333333
2023-09-30,17:30,Tottenham,Liverpool,H,2.0,1.0,23-24,1845.83532715,1965.27734375,-119.4420166,2.935,3.9616666666666656,2.171666666666667,6,2.9,4.0,2.15,1.800752191641645,1.1992610701654192,0.6014911214762257,17.14812484529686,11.8673038394319,5.280821005864953,6.36102535897374,4.509838048340787,1.8511873106329533,0.3712319800964943,7.028328505962761,2.6925022712116125,11.82419217946934,-1.076633158373821,2.434252156646105,0.1819024734647583,2.0601164756157484,0.6995413623986063,1.8181548489412744,1.212047449362335,8.323136935228593,6.629460895361902,1762.519965901895,2.260349510028953,1.5722573194909384,0.6880921905380146,16.4096455190087,13.058477986606928,3.351167532401775,6.399380280834097,4.7462143172556965,1.6531659635784002,0.397377510366225,5.640831531935186,-0.578342122031986,11.992502736014163,-0.0852732115798722,2.89404983557413,-0.2153039797757603,1.8794879684295005,0.6696305291104596,1.9143409910799472,1.555497192603286,10.36220094145751,6.91211951541189,2.0894377586033044,1.3483452839504655,0.7410924746528388,14.874035048511123,12.008651860489053,2.8653831880220704,4.840100742869812,4.719063367785742,0.1210373750840691,0.3445064838861778,5.505902968469457,1.5670559967076432,10.340955331764034,-1.82311852163915,1.955374431752072,-0.7882171491810296,1.8951252818359667,0.6802443562149412,1.8793312072902688,1.4260723419252357,11.118256000900534,6.327175684704596,1762.4715787434775,2.491732839769061,1.0560126467793387,1.435720192989722,17.03508385607345,11.109219557992716,5.925864298080731,5.440875009530323,4.275322701246997,1.1655523082833257,0.3279713059719154,6.583272708259345,2.976863577450355,11.102926092567976,-1.0940908836420506,1.6004246246775138,0.0946013661696321,2.4678068925451293,0.8579753970207559,2.498902489085581,1.1903310265804663,11.790092384396717,4.954038822076036,2.333333333333333,2.6666666666666665,-0.333333333333333
2023-10-01,14:00,Nott'm Forest,Brentford,D,1.0,1.0,23-24,1677.86328125,1795.02563477,-117.1623535199999,2.765,3.228333333333333,2.623333333333333,6,2.75,3.1,2.7,1.5916026597851018,1.207332475614466,0.3842701841706359,10.777356767089495,12.683063231640157,-1.905706464550654,3.6053267940411575,3.910363266864613,-0.305036472823455,0.3362249578703279,3.297472113934211,-2.901096473476812,11.678266683865605,-1.023077722434517,2.3174316571501707,-0.1749556819479533,1.860158154386141,0.6769518056618995,1.2362702004332151,1.5390179896468548,5.838172312268252,8.695757820314544,1799.6078570177249,1.2163536662514187,1.5475963769771923,-0.3312427107257741,9.725344228096237,13.638360016459036,-3.913015788362797,3.278690198598388,4.655412096693023,-1.3767218980946374,0.3547494253025312,3.7359387973417353,-2.9239443538417067,12.424561404099329,-2.720507815448144,3.0787054134058804,-0.7328294845726802,1.1702976102059892,0.4326396679224618,1.026599788173377,1.596837622730085,5.070079591989679,9.425603383028893,1.3224969508396451,1.0542595664649446,0.2682373843747002,10.013443241040356,15.174872534765086,-5.16142929372473,3.477153233419068,5.2347357952189455,-1.7575825617998768,0.3267877338407005,3.2329300751514496,-3.694888643757611,10.636582674265648,0.4921722112490376,2.021424595761752,-0.145070152780197,1.359615871403872,0.4798594478469511,1.3595948321143865,1.4194715449512214,5.722223518869215,8.29292832602377,1810.2138147851856,1.3975998899052788,1.289902688285615,0.1076972016196638,12.73223295251658,13.833715531491238,-1.1014825789746618,4.170352704522923,4.568947446962359,-0.3985947424394374,0.3196841830827471,3.9495017483197454,-1.312072561936241,9.75227643662152,1.681619736562288,1.8933296386896536,-0.0904672401687766,1.28720764183614,0.4835900865154505,1.7311533537753252,1.4811651090566431,7.517516240061301,7.206009316050031,1.1666666666666667,1.0,0.1666666666666667
2023-10-02,20:00,Fulham,Chelsea,A,0.0,2.0,23-24,1734.70300293,1756.81408691,-22.111083980000103,3.6633333333333336,3.458333333333333,2.043333333333333,6,3.6,3.5,2.05,1.3777452730036046,1.5867507962494731,-0.2090055232458685,12.058208452157656,11.936446847240829,0.1217616049168247,3.508771851589112,5.345013922667096,-1.8362420710779848,0.290465774575736,5.471717641989905,0.6935998919017548,10.415240555131303,1.905247425902837,1.4656392581440427,0.2613600018159471,1.4268000305435158,0.5069286502934426,1.2393415670921455,1.947204810980339,7.2439942487674305,7.409216525131716,1756.262066121179,1.1097649437735029,1.530408499010906,-0.4206435552374034,9.947102862124646,12.320926460515052,-2.373823598390405,3.380533373868682,5.53467777780062,-2.154144403931938,0.3506302793800148,4.483602886365774,-0.4162172194992774,10.503173752839531,1.145650122328186,2.095629380111325,-0.4581300234350066,1.2753685713654348,0.4730132455121155,1.1648685965401149,1.9052974823064903,6.684754065573222,8.238975075165065,0.9332307952000332,1.5921192191844291,-0.6588884239843964,12.855609404553125,12.686246517458844,0.1693628870942763,4.608683810216012,5.025340847472133,-0.4166570372561226,0.3654916462200915,5.434435846580909,1.232319445541188,11.18890464816627,0.8920883855269363,2.618852030429106,-1.341683038605213,0.81072903122639,0.3121785148267817,1.3429852385984484,1.7795268421599388,10.064086607298796,8.054036282910928,1794.4499839722853,0.8205845504696088,1.231135468825999,-0.4105509183563897,14.659631487908603,12.367973104927003,2.291658382981597,4.654455144866774,4.262223687921243,0.3922314569455312,0.3378662171823353,5.972202477439004,1.618989924500853,10.884315904864126,1.1125870572192194,2.522781759135826,-0.4696066278958326,0.765789268001736,0.3089086567166801,1.6993176909177157,1.4418771060435989,12.218185128631704,6.496957910228236,1.3333333333333333,0.8333333333333334,0.4999999999999999
2023-10-03,19:30,Luton,Burnley,A,1.0,2.0,23-24,1595.82226562,1686.61621094,-90.79394531999992,2.891666666666666,3.11,2.61,6,2.9,3.0,2.63,1.0,1.4642857142857142,-0.4642857142857143,18.142857142857142,5.785714285714286,12.357142857142858,2.607142857142857,3.0,-0.3928571428571429,0.1361607142857142,9.535714285714286,6.214285714285714,10.142857142857142,5.0,0.4642857142857143,1.0714285714285714,0.5357142857142857,0.2678571428571428,2.139531071428572,0.9776214285714284,12.821428571428571,3.321428571428572,1695.98669434,0.9270500574665714,1.751097836989946,-0.8240477795233748,12.173681285398615,15.0731208796834,-2.8994395942847886,2.2330360875441966,4.959862068040907,-2.726825980496711,0.2001718968750608,6.410870140174557,2.1076727318377,11.28233820082708,0.1811300012066151,1.3474725677867876,0.0391418650370455,0.8946777301496569,0.3316477792796142,1.6308339931938984,2.4281252324074902,6.454583736046227,9.356024300498367,0.7720240515194737,1.3305384906533444,-0.5585144391338708,9.876988076303066,17.64585825434812,-7.76887017804505,2.801268415503708,5.683603189121603,-2.882334773617897,0.2738552457132298,4.426657513662965,-2.8416377248850853,11.579041515992632,-1.4039336510268476,2.01620966525009,-0.8041386158967158,0.8142923240634037,0.3407377954693436,0.9957752042529292,1.6960689227835883,5.02561770832077,8.37342484245517,1770.7575436650002,0.7530979388983482,1.9325236238179724,-1.1794256849196243,10.78444135786153,15.75075041454818,-4.966309056686647,3.233040903459463,6.15667853639695,-2.923637632937487,0.2884407621180306,5.428567670938342,-0.3698415336813822,11.206354866332642,-0.9462137469305896,1.9730401416490144,-0.6786012463720906,0.5361749928799142,0.2116776992900919,1.0551700500084915,1.826560146485402,5.520014170559488,8.830832872978887,0.6666666666666666,0.1666666666666666,0.5
2023-10-07,12:30,Luton,Tottenham,A,0.0,1.0,23-24,1588.85107422,1855.43896484,-266.5878906199998,6.359999999999999,4.755,1.461666666666667,6,6.0,4.75,1.45,1.0,1.66893039049236,-0.66893039049236,18.08828522920204,8.923599320882852,9.164685908319187,2.757215619694397,3.382003395585739,-0.6247877758913414,0.1478140916808149,8.567062818336165,4.222410865874363,11.616298811544992,0.0339558573853988,1.814940577249576,-0.101867572156197,0.3310696095076401,0.16553480475382,1.906909694397284,0.9556885398981324,9.451612903225806,3.962648556876062,1690.9667925185713,0.9424221570788016,1.80354680008182,-0.8611246430030182,13.401410171030184,14.846991557499244,-1.4455813864690636,2.39465164544342,4.757598778838661,-2.362947133395241,0.1931116344758392,6.535012292659817,1.874262601819329,11.855007163110296,-1.5428075503757448,1.90641633794082,-0.3905485608115329,0.7061501630113786,0.2617625604266317,1.6097083511936423,2.1103746784965858,5.937350899573843,8.438117621821112,2.321562216334021,1.9331715299739576,0.388390686360063,13.73259488811687,14.125540553925395,-0.3929456658085267,5.495504729367295,4.842150493277096,0.6533542360901993,0.4037516559813947,3.9967028283007577,-3.0240877049242183,11.53124019525077,0.2441344331768777,2.561548965270269,-0.4023378439656183,1.484186481149979,0.5511715210817774,1.7239751656877291,1.7021686478534863,8.878100977111648,7.51167986151446,1774.432415126272,2.225636242025092,1.4959563435588132,0.7296798984662793,17.42169278314087,12.917347588392673,4.504345194748205,6.612796243389552,4.646719074954937,1.9660771684346128,0.3888382867618394,6.488720661010494,0.4321034942389456,11.860169037878943,0.7260965499641108,3.1748431908309134,-0.319930115805659,2.0288895726389,0.7136797918957316,1.9508595256026209,1.4978295669228476,11.380574149263175,6.923836913356971,0.5714285714285714,2.4285714285714284,-1.857142857142857
2023-10-07,15:00,Burnley,Chelsea,A,1.0,4.0,23-24,1693.57299805,1769.1763916,-75.60339354999996,4.638333333333333,3.855,1.7266666666666666,6,4.5,3.8,1.73,0.8988947031976,2.136106065060099,-1.237211361862499,11.550488286613126,14.190244719752489,-2.639756433139358,3.618190026336422,5.723458442361798,-2.105268416025376,0.3041505575772386,6.040924765070383,0.6326794607078436,10.331384196448765,-0.6559307270182198,1.669571630203941,-0.4533174574806833,0.6450481228087959,0.229422971397927,1.1471839067744365,1.756970421123094,5.833788759556182,8.951972313859455,1805.7161748299543,0.9193515470452353,1.8081871406422427,-0.8888355935970079,11.21318251014666,16.05065035927509,-4.837467849128427,3.3353021163315346,5.735788064877357,-2.400485948545822,0.2880772319308646,5.504758648146564,-0.4538626625238645,10.51217421748829,0.2466147526601559,1.976634789429146,-0.3214544135224784,0.8646849938292591,0.3167873393847464,1.0371748433406929,1.787096126954015,5.450678947818223,8.186721823248368,1.0754666891755462,1.3798366566232456,-0.3043699674476999,12.608194817275574,12.3280803151255,0.2801145021500734,4.527525968852631,4.755295401138369,-0.2277694322857391,0.365244275208924,4.843177733694376,0.1346768527855086,11.297050695079095,1.1731432674609938,2.8030050930413863,-1.5627919667945798,1.1026318270673536,0.403888046184619,1.4285352069634505,1.6608409962914912,9.788875059085925,7.9134981115635155,1785.5270089643936,0.9778399437403276,1.0669840729825326,-0.0891441292422043,14.171680622854124,12.052243357603404,2.119437265250718,4.567194458884537,4.093927196198411,0.473267262686127,0.3413022367095391,5.309242147113803,0.469791267900739,11.033073784215576,1.364242116256657,2.719744191251049,-0.806992410843055,1.063684032268171,0.4010541691544561,1.73735666546202,1.3682112252377858,11.655760444814144,6.564030188864471,0.5714285714285714,1.1428571428571428,-0.5714285714285714
2023-10-07,15:00,Everton,Bournemouth,H,3.0,0.0,23-24,1677.27294922,1643.3996582,33.873291020000124,1.94,3.6266666666666665,3.763333333333333,6,1.91,3.6,3.8,0.6126794530004346,1.4954811293308417,-0.8828016763304071,14.090293880274444,11.413966864603486,2.6763270156709567,5.0680561904511805,3.5888433198798806,1.4792128705712984,0.3595634873667979,5.227753308355783,-0.4321894924792089,10.172989847068102,-0.1658640851195387,1.383188173907394,0.4900256571980578,0.6690021103917608,0.233208834228122,1.6746603205775776,1.3808842497077007,5.809767949845065,6.2773383802388825,1775.5261992010703,1.0964410303358578,1.6278331668626107,-0.5313921365267527,14.94652822883548,12.345842116929738,2.6006861119057443,4.886009700785514,4.073366796904186,0.8126429038813263,0.3278153810365121,4.902716964016229,-0.3793154272814494,11.089043352760015,-0.9950977741583444,1.6377389936724205,0.3000852149476722,0.8759709853075335,0.3282051751457552,1.981580168350893,1.6694534076769898,6.285678449286675,6.720664052477994,1.0091770609534625,2.018243451848624,-1.0090663908951614,10.10197091873624,17.821457036696064,-7.719486117959829,3.5931410470807346,5.976587828272827,-2.3834467811920925,0.3783835119045156,3.126271664007351,-4.50296854885898,11.947670395790311,-2.6008456892099776,2.43321018187483,-1.2746871370448485,0.7988729537926086,0.2893857425619722,1.1781510864526168,2.0636562264502536,4.840396760463837,10.130912048762056,1781.8907922890762,0.7360917155042499,2.0450649398923577,-1.3089732243881078,10.99477383385223,16.500779242320036,-5.506005408467799,3.5791813760563698,6.057726561205863,-2.478545185149493,0.3211093451950407,4.074104752933679,-2.0751090700038946,12.50859114797984,-1.5601258626343464,1.634531221119624,0.3240989481956788,0.6003148726221269,0.2425887344059932,1.201467241690504,2.261343677055036,7.248762200575105,12.036618083047244,0.5714285714285714,0.4285714285714285,0.1428571428571428
2023-10-07,15:00,Fulham,Sheffield United,H,3.0,1.0,23-24,1722.32629395,1606.29992676,116.02636718999996,1.62,3.891666666666666,5.733333333333333,6,1.62,3.8,6.0,1.194011601672162,1.6418609787103795,-0.4478493770382173,11.78372941550968,11.811563952977496,-0.0278345374678207,3.4409229378644635,5.165645246289947,-1.7247223084254837,0.29173724200504,5.808884902805102,1.5346102495129514,11.026655960782294,1.251092310287442,1.403542430746958,0.6265801852425354,1.2365245035616217,0.4393255426315638,1.192671711926863,1.952193100789852,7.211455607562686,7.488002363796112,1756.344571747235,0.9617962801340576,1.593020701034093,-0.6312244209000359,9.954155814054406,12.144802927126268,-2.19064711307186,3.32979558915357,5.330054067912863,-2.0002584787592936,0.3438795752587629,4.952455849012837,0.5726117729698867,11.102750603905498,0.5928967559875726,1.949545458350435,0.0029539936174873,1.1053194233800865,0.4099448108720774,1.1281371825585649,1.9158724849850608,6.726786858099798,8.207111730847236,0.4547909689240204,1.8753366473917272,-1.420545678467707,8.626280583184426,17.639094133971746,-9.012813550787325,2.3803132082836043,7.00756830242597,-4.627255094142365,0.3100715900964461,4.048644497805922,-3.680243275630854,11.217846972703748,-2.672266951831476,2.3576643257811494,-0.8863134033580986,0.344230236140255,0.119604356045812,0.7692663300406442,2.046895082822174,4.592754794800562,9.925307848172702,1781.1542504883894,0.5875326626340656,2.425352174523408,-1.837819511889342,9.57548534402338,19.683059983267672,-10.107574639244284,2.72143312210881,8.00108459500106,-5.279651472892251,0.29822534216792,3.737045726654695,-4.167031513397835,11.466053181799186,-3.5469364959953733,2.4241765456563047,-1.101768823817309,0.4846530871839953,0.1763982794250172,0.786722565610515,2.626925498463519,4.315016086738855,11.310354121234152,1.1428571428571428,0.1428571428571428,1.0
2023-10-07,15:00,Man United,Brentford,H,2.0,1.0,23-24,1816.89611816,1792.96337891,23.93273924999994,1.6616666666666668,4.155,4.736666666666667,6,1.67,4.2,4.75,1.6331266592952434,0.9701889662249602,0.6629376930702835,18.02370387180925,11.15929105072567,6.86441282108358,6.069669433409957,3.552204403216797,2.5174650301931605,0.3392585261945074,7.465050184647882,3.098143716587283,11.100374771668877,-2.148363759884186,2.0911120889594805,-0.1944495000848786,2.068925446330407,0.7025692332023811,2.253424735728552,1.2317813851367505,12.589306194160578,5.5935707105367705,1760.6581673413282,1.1770482942013347,1.2751371567737109,-0.0980888625723761,16.534254445159952,12.543837459711224,3.9904169854487326,5.216073496785034,4.271713043369014,0.9443604534160192,0.3144673268461421,6.8288450612294,1.325224514540847,10.428314166346114,-2.10493815508396,2.299374024016325,-0.5001463283377967,1.5404105109349049,0.5196548922320726,1.8344316065159485,1.4829802221707833,11.34630795489661,6.6176017920008325,1.2793752810846015,1.047004418470331,0.2323708626142699,11.081340665010147,13.948083188513309,-2.86674252350316,3.6807759194167753,4.668501361107685,-0.9877254416909091,0.3202345210597667,4.27147950450772,-1.8637194997062296,10.551464015686095,-0.1084845269679491,2.0185598730390466,-0.2593844197509663,1.311530961438132,0.4825524787000082,1.4129492327334172,1.3366832340998842,6.427924871603618,7.451489123698146,1790.3855951766734,1.3445862030275324,1.2512487280306164,0.0933374749969161,13.43460677074557,12.789212872361349,0.645393898384218,4.280973112269688,4.0930844821072405,0.187888630162447,0.3140966235652159,4.88957471145794,0.1962142559491989,9.785306474492796,0.9240651765137592,1.9075524523201848,-0.211739117145986,1.2489130236036643,0.4857780901775442,1.7348155987092555,1.390384730637943,7.981850633237842,6.5118699192069975,1.2857142857142858,1.0,0.2857142857142858
2023-10-07,17:30,Crystal Palace,Nott'm Forest,D,0.0,0.0,23-24,1762.85095215,1679.91113281,82.93981933999999,2.21,3.1916666666666664,3.498333333333333,6,2.2,3.1,3.6,1.1575819210710017,1.003755780038547,0.1538261410324548,12.935334489262988,10.712302724769886,2.2230317644930984,4.298472882242035,3.978035643557488,0.3204372386845474,0.3116843062621106,4.935986053528524,0.9862947336855186,10.763926983896704,2.53355586398245,1.660138504619498,0.4609227506361495,1.5387534182315166,0.5829782221672283,1.1586782029491969,1.1562225189966493,7.243627225650098,6.3461793880368855,1755.3594338393889,1.1305629500081325,1.0671862869781554,0.0633766630299769,11.94860945077623,12.038471730368649,-0.089862279592419,4.283653040708561,3.640536182544661,0.6431168581638982,0.3553772073367757,4.422196236608076,-0.7890384753784606,10.851697069099062,1.63698613477357,1.69987999278165,0.8236332736496127,1.5155914874378709,0.5601371387046911,1.230868561339636,1.2376758486574422,6.410230676954505,8.232617395891861,0.910559096714029,1.9347779478283136,-1.024218851114285,8.642330588448083,15.204159252847534,-6.56182866439945,2.946763224449961,5.37754120899649,-2.430777984546528,0.36087318932121,3.754815366511954,-3.0990256198582418,12.420879605579794,-2.6893976774080364,3.0450512064430244,-0.9377175058144376,0.602508395813484,0.2319046675416205,0.90772850481905,1.815344932751702,3.867287592748816,10.887511688624048,1839.1509619223195,1.1874603639738932,1.4744667281008312,-0.287006364126938,9.227837073560032,14.22084232264627,-4.993005249086234,2.9743788095395685,4.701430648742227,-1.7270518392026608,0.3296316073676052,3.370563400409281,-3.868927714925381,11.566582901283237,-1.8230066677460024,2.8011013177781714,-0.5014159524581603,1.1475549388472157,0.4416354130371718,0.9963804851582068,1.6184431134556465,4.660080819127018,9.635858740134776,1.5714285714285714,1.1428571428571428,0.4285714285714286
2023-10-08,14:00,Brighton,Liverpool,D,2.0,2.0,23-24,1817.17126465,1957.5201416,-140.34887694999998,2.986666666666667,3.995,2.153333333333333,6,3.0,3.8,2.2,2.339906399171304,1.362272635056112,0.977633764115192,19.828862734867293,10.046409241109368,9.782453493757922,7.261383782901921,3.2087786769479725,4.0526051059539485,0.3649106660542635,7.431366170282395,3.928207726195701,11.743287262483582,0.9053125967737178,2.1064742206287987,0.8321695559878834,2.0270235663112306,0.6991799011299067,2.318759602086135,1.5155114634056222,12.256655998645115,5.649507108459462,1782.7185277835074,2.2791724457431264,2.043842637151208,0.2353298085919179,16.04885478959271,12.840137111448795,3.208717678143914,6.354553855391909,4.394406636202,1.960147219189909,0.4085617442662771,5.178298951762807,1.239332211042682,13.091543797140748,0.4915262341834174,2.800620828990021,0.1464137283084212,1.807129300140757,0.61364269312385,2.1083505052646694,1.7300189377272286,10.491188333811184,7.487539474128702,1.9441793907875973,1.4352325794248932,0.5089468113627043,14.490830375371209,13.60749827911179,0.8833320962594177,4.728087310485681,5.156521585420132,-0.4284342749344523,0.3430167304791121,5.438449239339299,0.4247818637980897,11.228827954207311,-2.380036052094675,2.227991174188757,-0.5497881959537193,1.642441910921142,0.5895451087184087,1.7784857128114453,1.5276933631766585,10.56915519983601,7.88355226275428,1774.7254074674972,2.2928351277998527,1.1818776272087603,1.1109575005910926,16.363739341930323,12.827990283593689,3.535749058336633,5.248758341592947,4.771946341080732,0.4768120005122155,0.3286862429534378,6.3721696804914325,1.646615100456974,11.889202613558911,-1.748212099156444,1.9203680080538448,0.2153211840136812,2.138765973539112,0.7435786774179884,2.315447490540837,1.3233842230364044,11.151413399810489,6.693500312465899,2.142857142857143,2.2857142857142856,-0.1428571428571428
2023-10-08,14:00,West Ham,Newcastle,D,2.0,2.0,23-24,1804.78173828,1888.63635254,-83.85461426000006,3.251666666666667,3.673333333333333,2.1116666666666664,6,3.2,3.75,2.1,1.702917344004616,1.3007571905867503,0.4021601534178649,13.5138678505139,15.665178507882615,-2.151310657368718,4.930392696203596,5.111094552564188,-0.1807018563605925,0.3650466141398404,5.836123429684485,0.2157175292219818,8.003480958947298,0.9866493299320848,1.2383156526953858,0.3592533486164014,1.786114788324698,0.619392309864419,1.788787266115691,1.63246773806616,6.378212635029783,9.166130221679127,1800.08429893322,1.6446342650603527,1.5513342815744284,0.0932999834859243,12.327065363147494,18.41742213309994,-6.090356769952444,4.574293314877865,5.842418152904711,-1.2681248380268448,0.391186564837368,5.0852262899870695,-2.590500397518398,9.524888384143186,-0.1617959985740659,1.675167167490714,-0.4734223531125375,1.5654771255366,0.5375996694874208,1.7228970967756656,2.185005247664745,6.040257904158419,10.909218077728438,2.3409177608107177,1.2836073808175177,1.0573103799932002,12.87195644533175,12.656952827223272,0.2150036181084733,5.414126659744777,4.003074390234321,1.4110522695104564,0.37260276610513,5.024349259273118,0.2342379100302488,11.342895349838988,0.1949045837283532,1.82411353939144,0.3440381572428,1.4686880007508532,0.5337154467534687,1.8955376066179823,1.2988220964368535,7.9712383544487215,7.756708526952293,1748.0602859983433,2.444277058464817,0.9313310926853108,1.512945965779506,16.20413286207285,10.704053496760372,5.500079365312476,6.548430194622852,3.30801041481418,3.240419779808672,0.3735204886778551,5.865278897982469,1.8361497952840151,10.889206168593487,1.4670921376551307,1.878758575676377,0.8258176606092301,1.8597818119241285,0.6440168840270799,2.46744085795176,0.9970431845795108,8.521347395047654,5.954792467952754,1.8571428571428568,1.7142857142857142,0.142857142857143
2023-10-08,14:00,Wolves,Aston Villa,D,1.0,1.0,23-24,1709.81921387,1839.2467041,-129.42749022999988,3.373333333333333,3.5400000000000005,2.1133333333333333,6,3.5,3.4,2.1,1.2761353690793895,1.4406528069170634,-0.1645174378376737,10.65574143463771,15.980441259302252,-5.324699824664542,3.7606415666509294,4.985692417904844,-1.2250508512539142,0.3586288667439708,4.245148096862225,-1.243314214036202,13.698068874518896,-3.793116248454471,2.8200645954125574,0.2491810910543958,1.614590890282006,0.5564457436100767,1.1564372124153626,1.748476173191432,4.8518652630923285,9.91661669932988,1846.7871468169835,1.095641019059329,1.8529452985367496,-0.7573042794774205,9.554181333427614,17.532587456381673,-7.978406122954061,2.8908941187554005,6.369300839156932,-3.4784067204015297,0.3552751226094415,3.1463000672704062,-3.0491084544465954,13.86080008335314,-3.2109733658558013,2.8082219138541418,-0.444572938080977,1.152843492848056,0.4149014416813661,1.0057627993472706,2.121965341364528,4.73269347875778,11.858665922540393,1.0796820449285889,1.4814685775477665,-0.4017865326191782,11.979021451409215,12.450410201435435,-0.4713887500262212,4.166089844693559,5.111020507910223,-0.944930663216663,0.3490039854210283,5.175250557025089,-0.912125440806232,11.056262904624353,1.8791942569522069,2.1365280032410494,-0.0092870525417928,1.4050662872710549,0.4982154624695781,1.2970664488908925,1.75013279525538,5.645954515793652,8.253461357983491,1807.0894652668203,2.2766150436912143,1.1699586349138174,1.106656408777397,13.658274117029926,10.251308745022277,3.4069653720076536,5.3668537301365005,3.8847545529920913,1.4820991771444076,0.3908006944134602,5.0689754488253405,0.3378006737412402,11.940393671136404,1.679126470671423,2.828939111982658,-0.134162761348226,2.169760900843375,0.7361200436470359,1.745189545607574,1.4751373414018232,8.81329609898335,7.447974921548229,1.0,2.142857142857143,-1.1428571428571428
2023-10-08,16:30,Arsenal,Man City,H,1.0,0.0,23-24,1921.5402832,2076.63427734,-155.09399414000018,2.87,3.456666666666667,2.415,6,2.9,3.3,2.4,2.5871316977641308,1.4453389633408371,1.1417927344232943,16.851344590881205,8.560274309562013,8.291070281319195,6.594490248955724,3.472894355028857,3.121595893926868,0.3993019586206079,8.223316213714122,5.15069359231945,9.55117219296229,2.1566795410342188,1.161555484592416,1.32435329058985,2.064147885569529,0.7416217521290328,2.244466439715948,1.228091052509234,12.56932929663692,4.709699629736706,1780.5795339156768,2.280598383216299,1.0285105828474828,1.252087800368817,14.62517157557813,9.57536928532778,5.049802290250351,5.957799306706792,2.890593406089583,3.0672059006172097,0.4069096130598935,7.940521153414379,4.523084960226407,9.951945004183791,2.0468051286402704,1.308519349153646,0.7425953367457976,2.1553010504793484,0.7605793842349501,2.1738336807507883,1.1473925359827066,11.198401555611955,6.601674335822733,1.949584407854018,0.9298457756707598,1.019738632183258,19.20732282513919,7.34540159863356,11.861921226505627,7.313901401670244,2.3022782166062745,5.01162318506397,0.3883912476149916,6.682573034544965,3.779569306011464,9.045944753118372,2.445330048272933,1.4563989274327251,0.9265753234560408,1.990615557939775,0.6830920377836471,2.309399634366111,0.920237559623806,12.610032280986712,3.505503196366723,1742.3996754391712,2.2104149956409103,0.7847876019392399,1.4256273937016704,16.889302380417973,7.31705202856449,9.572250351853484,6.714553530319278,2.5967138091131754,4.117839721206102,0.4266491860749482,6.286954634788343,3.210577142667965,9.025759683326584,3.4951735849120342,1.6498773974456376,1.757701658729134,2.3196106890251724,0.7819244106582821,2.1049776817221924,0.8600939718890686,11.618988987119964,3.971447162529251,2.4285714285714284,2.571428571428572,-0.1428571428571432
2023-10-21,12:30,Liverpool,Everton,H,2.0,0.0,23-24,1954.82983398,1687.64025879,267.18957519000014,1.3483333333333334,5.544999999999999,7.774999999999999,6,1.33,5.75,7.5,2.4749401495853927,0.808411036909991,1.6665291126754014,17.91884356070993,8.930855107697473,8.98798845301246,5.924616846562824,3.58161476816212,2.3430020784007044,0.3343984514287705,7.17572529717757,3.9274293721781466,11.94618310503026,-1.3742679772664566,1.3527366982722104,0.7774358647042362,2.5958743495064494,0.8948421283703001,2.706378310766123,1.0844529573942248,11.53450052146561,3.900349652282909,1788.0958101611604,2.2537904440932057,1.2909606102475923,0.9628298338456136,16.048574096339614,12.9842582457812,3.064315850558416,5.082257229380554,4.535686828936634,0.5465704004439201,0.3229566486548841,5.655880389759242,0.4937330870627106,12.970642265084392,-2.581783819268918,1.9309856069799995,0.0532783594785237,1.986930510400564,0.7111015204289233,2.341426491802059,1.4445156599648836,11.664558279835756,6.334366937470446,1.482209749338284,1.7933784718604548,-0.3111687225221706,13.12506154872242,15.411227410531028,-2.28616586180861,4.155013122483155,5.482434998160072,-1.3274218756769165,0.3208673229217633,4.427619475195304,-1.080513109581472,11.875034387452684,-1.4310538138307662,2.2651260925306254,-0.1891756126492866,1.1387322468635983,0.456941319024943,1.7825158194175186,2.170392986678553,5.805403554981888,8.662739119667272,1772.5255303067388,1.3502488929577436,1.4107887446142626,-0.0605398516565189,16.286991131657416,12.166396501339106,4.120594630318312,5.3012084073474455,4.063584557316961,1.2376238500304828,0.3267733302316438,5.315688035480733,-0.1954067036439228,11.477170905725346,-0.7290847376038985,1.552707127849431,0.3934071862879826,1.1591748539331956,0.4177778184596546,2.1393454792374405,1.5777572199867242,6.514254656048452,7.557908845480927,2.125,0.875,1.25
2023-10-21,15:00,Bournemouth,Wolves,A,1.0,2.0,23-24,1633.0324707,1712.2154541,-79.18298340000001,2.393333333333333,3.44,2.9133333333333336,6,2.38,3.4,3.0,0.705947260479662,1.7987316083208105,-1.092784347841148,11.240783956735088,15.472807464967872,-4.232023508232785,3.703233987784499,5.71450329105934,-2.0112693032748434,0.3256546048728841,4.930967551733133,-0.6619222778733621,11.303683108901035,0.1862637409473182,1.083608132474569,1.177139000819711,0.7742500575897212,0.3036157187396019,1.203669810727104,2.0505639167265497,8.128611836115804,12.297956265822656,1812.6910158763567,0.6379461534370164,2.172389614573377,-1.5344434611363604,10.995470656005264,17.634008676677364,-6.638538020672095,3.63529052591552,6.3166963530450815,-2.681405827129561,0.3267796143205504,4.464224119209189,-1.9317611940033752,12.840778994915862,-1.4854424142831,1.6832603916370077,0.147552421769588,0.5202728896058432,0.2102435698185274,1.172169209465103,2.381807186781032,8.0155939071651,11.49840233864094,0.7816125949020485,1.986927248008053,-1.2053146531060048,9.944822055014042,16.866239310707197,-6.921417255693154,2.6773422520189203,6.528834108630915,-3.8514918566119936,0.328593376392603,3.540312077580801,-2.752768404635485,12.778309766065478,-1.2631596757204129,2.3622733522565977,-0.8707733501522924,0.7004742763858818,0.2750162873579578,0.8748851066468815,2.22479058580326,4.893906680428217,10.807149611925604,1752.6403924640035,1.082888883184746,1.7392192587317936,-0.6563303755470478,9.346957155637163,17.594909128864145,-8.247951973226986,2.905441569588021,6.053394060602518,-3.147952491014496,0.3579051062615173,2.9934600583009434,-3.709227327187376,14.546026738906392,-4.116176917075476,2.70045899200687,-0.3852965463368174,1.1324643604683051,0.4262479161238563,1.1066370927676843,2.081193962515904,4.501667681589961,11.477510466201483,0.375,1.0,-0.625
2023-10-21,15:00,Brentford,Burnley,H,3.0,0.0,23-24,1786.79138184,1680.66809082,106.1232910199999,1.8133333333333328,3.695,4.3500000000000005,6,1.83,3.75,4.2,1.5545916871304613,1.369735278677444,0.184856408453017,13.42286524820558,13.318408808560278,0.1044564396453041,4.820800315344366,4.546718162240943,0.2740821531034237,0.3713550546020858,4.671901381630673,0.3978967512671796,8.962712457728204,2.444905788319574,1.390992007901985,0.1882328969517463,1.4600308474060648,0.5651370047943152,1.916119498483241,1.4165283168068274,8.100019985592452,6.458375391618358,1761.299409983911,1.298641099380827,1.3510828319325858,-0.0524417325517585,13.109990580549647,13.883991079631157,-0.7740004990815098,4.110175669148696,4.614009686980176,-0.5038340178314802,0.3085806769157375,4.904298171894564,-0.0966160742654308,10.747271401980496,-0.132483207140138,2.3198812741122654,-0.8501777447442438,1.082390284703971,0.421007288252191,1.6401849492319425,1.3774746888381293,7.184265747573505,7.910295681435383,0.9357541785616575,1.2864666917439522,-0.3507125131822948,10.426723001403714,17.693077153935096,-7.266354152531379,2.9610992940008924,5.325789429308654,-2.3646901353077627,0.275436451052287,4.636436512581945,-2.596086027366724,10.835169311233749,-0.1500758264626958,2.014048376542447,-0.4302534657903382,1.1057200152172837,0.428639423050469,0.9856993101698468,1.6740037326790334,5.022202013816068,7.790301519554869,1744.631652568189,0.9301046741058704,2.100428855223277,-1.1703241811174068,11.051424842127105,15.110563644705078,-4.05913880257797,3.2905951674873304,5.637682989560377,-2.347087822073046,0.2896669343400826,5.704124161727022,0.1399856924793174,10.577217655156518,-0.1862672143611982,1.9797501508385933,-0.0119271583861479,0.7493936613186912,0.2745490274667801,1.0264371308952671,1.8122379766934795,5.123921754775793,8.428492246815253,0.875,0.5,0.375
2023-10-21,15:00,Man City,Brighton,H,2.0,1.0,23-24,2065.77539062,1819.86157227,245.91381835000016,1.403333333333333,5.366666666666667,6.655,6,1.4,5.25,6.5,2.7370797202158506,0.5923305946523323,2.144749125563519,13.58828822571442,7.438519108802272,6.149769116912149,5.333346696960513,2.797574107738949,2.535772589221565,0.4278815809890338,5.97958034200003,3.069332738726781,9.1214131818969,2.829099934349305,1.3283134819927214,1.876726392480448,2.8845409470207284,0.9656248279805514,2.060416930572138,0.7657105423494542,10.763097415511222,4.558990048766537,1755.301138171554,1.9156929962221223,0.8134825883473412,1.102210407874781,15.170728729695576,7.941445091422557,7.22928363827302,5.95261305961004,2.5171519678980854,3.435461091711955,0.4030959612649551,5.982027350149897,2.649166856978902,8.755658392216372,3.16248377359043,1.8298937444528856,1.390008104231916,2.010329263821816,0.6776678225705112,1.938723457492567,0.7969558423038594,11.0031237888373,4.641920874192017,1.966162889738173,2.1700027674938696,-0.2038398777556962,13.04767546703438,13.935121102861752,-0.887445635827373,5.451989825693306,4.859951448690764,0.5920383770025418,0.4315782728972445,3.72393498634074,-0.600202059741061,12.913649419558856,-0.1659103588764467,2.6224886637293805,-0.1572243062059879,1.464179129107943,0.505958551530622,1.9045283557358936,1.7368327301481097,8.218770901269377,8.281692189509348,1804.1036087455288,2.2419494529773765,2.0379969521977137,0.2039525007796621,15.775674150980349,12.994785496588957,2.780888654391392,5.907280008006321,4.3418190847084,1.5654609232979204,0.382658273602202,5.554525758194433,2.0074212495703256,12.946004624188648,1.49265606962563,2.560538051791351,0.2602252312006319,1.6995120601219893,0.59849033404067,2.1248197712293804,1.8340550793635984,9.625696555969691,8.48920087757821,2.25,2.0,0.25
